-128 -128 -128
-128 -128 -127
-128 -128 -126
-128 -128 -125
-128 -128 -124
-128 -128 -123
-128 -128 -122
-128 -128 -121
-128 -128 -120
-128 -128 -119
-128 -128 -118
-128 -128 -117
-128 -128 -116
-128 -128 -115
-128 -128 -114
-128 -128 -113
-128 -128 -112
-128 -128 -111
-128 -127 -128
-128 -127 -127
-128 -127 -126
-128 -127 -125
-128 -127 -124
-128 -127 -123
-128 -127 -122
-128 -127 -121
-128 -127 -120
-128 -127 -119
-128 -127 -118
-128 -127 -117
-128 -127 -116
-128 -127 -115
-128 -127 -114
-128 -127 -113
-128 -127 -112
-128 -127 -111
-128 -126 -128
-128 -126 -127
-128 -126 -126
-128 -126 -125
-128 -126 -124
-128 -126 -123
-128 -126 -122
-128 -126 -121
-128 -126 -120
-128 -126 -119
-128 -126 -118
-128 -126 -117
-128 -126 -116
-128 -126 -115
-128 -126 -114
-128 -126 -113
-128 -126 -112
-128 -126 -111
-128 -125 -128
-128 -125 -127
-128 -125 -126
-128 -125 -125
-128 -125 -124
-128 -125 -123
-128 -125 -122
-128 -125 -121
-128 -125 -120
-128 -125 -119
-128 -125 -118
-128 -125 -117
-128 -125 -116
-128 -125 -115
-128 -125 -114
-128 -125 -113
-128 -125 -112
-128 -125 -111
-128 -124 -128
-128 -124 -127
-128 -124 -126
-128 -124 -125
-128 -124 -124
-128 -124 -123
-128 -124 -122
-128 -124 -121
-128 -124 -120
-128 -124 -119
-128 -124 -118
-128 -124 -117
-128 -124 -116
-128 -124 -115
-128 -124 -114
-128 -124 -113
-128 -124 -112
-128 -124 -111
-128 -123 -128
-128 -123 -127
-128 -123 -126
-128 -123 -125
-128 -123 -124
-128 -123 -123
-128 -123 -122
-128 -123 -121
-128 -123 -120
-128 -123 -119
-128 -123 -118
-128 -123 -117
-128 -123 -116
-128 -123 -115
-128 -123 -114
-128 -123 -113
-128 -123 -112
-128 -123 -111
-128 -122 -128
-128 -122 -127
-128 -122 -126
-128 -122 -125
-128 -122 -124
-128 -122 -123
-128 -122 -122
-128 -122 -121
-128 -122 -120
-128 -122 -119
-128 -122 -118
-128 -122 -117
-128 -122 -116
-128 -122 -115
-128 -122 -114
-128 -122 -113
-128 -122 -112
-128 -122 -111
-128 -121 -128
-128 -121 -127
-128 -121 -126
-128 -121 -125
-128 -121 -124
-128 -121 -123
-128 -121 -122
-128 -121 -121
-128 -121 -120
-128 -121 -119
-128 -121 -118
-128 -121 -117
-128 -121 -116
-128 -121 -115
-128 -121 -114
-128 -121 -113
-128 -121 -112
-128 -121 -111
-128 -120 -128
-128 -120 -127
-128 -120 -126
-128 -120 -125
-128 -120 -124
-128 -120 -123
-128 -120 -122
-128 -120 -121
-128 -120 -120
-128 -120 -119
-128 -120 -118
-128 -120 -117
-128 -120 -116
-128 -120 -115
-128 -120 -114
-128 -120 -113
-128 -120 -112
-128 -120 -111
-128 -119 -128
-128 -119 -127
-128 -119 -126
-128 -119 -125
-128 -119 -124
-128 -119 -123
-128 -119 -122
-128 -119 -121
-128 -119 -120
-128 -119 -119
-128 -119 -118
-128 -119 -117
-128 -119 -116
-128 -119 -115
-128 -119 -114
-128 -119 -113
-128 -119 -112
-128 -119 -111
-128 -118 -128
-128 -118 -127
-128 -118 -126
-128 -118 -125
-128 -118 -124
-128 -118 -123
-128 -118 -122
-128 -118 -121
-128 -118 -120
-128 -118 -119
-128 -118 -118
-128 -118 -117
-128 -118 -116
-128 -118 -115
-128 -118 -114
-128 -118 -113
-128 -118 -112
-128 -118 -111
-128 -117 -128
-128 -117 -127
-128 -117 -126
-128 -117 -125
-128 -117 -124
-128 -117 -123
-128 -117 -122
-128 -117 -121
-128 -117 -120
-128 -117 -119
-128 -117 -118
-128 -117 -117
-128 -117 -116
-128 -117 -115
-128 -117 -114
-128 -117 -113
-128 -117 -112
-128 -117 -111
-128 -116 -128
-128 -116 -127
-128 -116 -126
-128 -116 -125
-128 -116 -124
-128 -116 -123
-128 -116 -122
-128 -116 -121
-128 -116 -120
-128 -116 -119
-128 -116 -118
-128 -116 -117
-128 -116 -116
-128 -116 -115
-128 -116 -114
-128 -116 -113
-128 -116 -112
-128 -116 -111
-128 -115 -128
-128 -115 -127
-128 -115 -126
-128 -115 -125
-128 -115 -124
-128 -115 -123
-128 -115 -122
-128 -115 -121
-128 -115 -120
-128 -115 -119
-128 -115 -118
-128 -115 -117
-128 -115 -116
-128 -115 -115
-128 -115 -114
-128 -115 -113
-128 -115 -112
-128 -115 -111
-128 -114 -128
-128 -114 -127
-128 -114 -126
-128 -114 -125
-128 -114 -124
-128 -114 -123
-128 -114 -122
-128 -114 -121
-128 -114 -120
-128 -114 -119
-128 -114 -118
-128 -114 -117
-128 -114 -116
-128 -114 -115
-128 -114 -114
-128 -114 -113
-128 -114 -112
-128 -114 -111
-128 -113 -128
-128 -113 -127
-128 -113 -126
-128 -113 -125
-128 -113 -124
-128 -113 -123
-128 -113 -122
-128 -113 -121
-128 -113 -120
-128 -113 -119
-128 -113 -118
-128 -113 -117
-128 -113 -116
-128 -113 -115
-128 -113 -114
-128 -113 -113
-128 -113 -112
-128 -113 -111
-128 -112 -128
-128 -112 -127
-128 -112 -126
-128 -112 -125
-128 -112 -124
-128 -112 -123
-128 -112 -122
-128 -112 -121
-128 -112 -120
-128 -112 -119
-128 -112 -118
-128 -112 -117
-128 -112 -116
-128 -112 -115
-128 -112 -114
-128 -112 -113
-128 -112 -112
-128 -112 -111
-128 -111 -128
-128 -111 -127
-128 -111 -126
-128 -111 -125
-128 -111 -124
-128 -111 -123
-128 -111 -122
-128 -111 -121
-128 -111 -120
-128 -111 -119
-128 -111 -118
-128 -111 -117
-128 -111 -116
-128 -111 -115
-128 -111 -114
-128 -111 -113
-128 -111 -112
-128 -111 -111
-127 -128 -128
-127 -128 -127
-127 -128 -126
-127 -128 -125
-127 -128 -124
-127 -128 -123
-127 -128 -122
-127 -128 -121
-127 -128 -120
-127 -128 -119
-127 -128 -118
-127 -128 -117
-127 -128 -116
-127 -128 -115
-127 -128 -114
-127 -128 -113
-127 -128 -112
-127 -128 -111
-127 -127 -128
-127 -127 -127
-127 -127 -126
-127 -127 -125
-127 -127 -124
-127 -127 -123
-127 -127 -122
-127 -127 -121
-127 -127 -120
-127 -127 -119
-127 -127 -118
-127 -127 -117
-127 -127 -116
-127 -127 -115
-127 -127 -114
-127 -127 -113
-127 -127 -112
-127 -127 -111
-127 -126 -128
-127 -126 -127
-127 -126 -126
-127 -126 -125
-127 -126 -124
-127 -126 -123
-127 -126 -122
-127 -126 -121
-127 -126 -120
-127 -126 -119
-127 -126 -118
-127 -126 -117
-127 -126 -116
-127 -126 -115
-127 -126 -114
-127 -126 -113
-127 -126 -112
-127 -126 -111
-127 -125 -128
-127 -125 -127
-127 -125 -126
-127 -125 -125
-127 -125 -124
-127 -125 -123
-127 -125 -122
-127 -125 -121
-127 -125 -120
-127 -125 -119
-127 -125 -118
-127 -125 -117
-127 -125 -116
-127 -125 -115
-127 -125 -114
-127 -125 -113
-127 -125 -112
-127 -125 -111
-127 -124 -128
-127 -124 -127
-127 -124 -126
-127 -124 -125
-127 -124 -124
-127 -124 -123
-127 -124 -122
-127 -124 -121
-127 -124 -120
-127 -124 -119
-127 -124 -118
-127 -124 -117
-127 -124 -116
-127 -124 -115
-127 -124 -114
-127 -124 -113
-127 -124 -112
-127 -124 -111
-127 -123 -128
-127 -123 -127
-127 -123 -126
-127 -123 -125
-127 -123 -124
-127 -123 -123
-127 -123 -122
-127 -123 -121
-127 -123 -120
-127 -123 -119
-127 -123 -118
-127 -123 -117
-127 -123 -116
-127 -123 -115
-127 -123 -114
-127 -123 -113
-127 -123 -112
-127 -123 -111
-127 -122 -128
-127 -122 -127
-127 -122 -126
-127 -122 -125
-127 -122 -124
-127 -122 -123
-127 -122 -122
-127 -122 -121
-127 -122 -120
-127 -122 -119
-127 -122 -118
-127 -122 -117
-127 -122 -116
-127 -122 -115
-127 -122 -114
-127 -122 -113
-127 -122 -112
-127 -122 -111
-127 -121 -128
-127 -121 -127
-127 -121 -126
-127 -121 -125
-127 -121 -124
-127 -121 -123
-127 -121 -122
-127 -121 -121
-127 -121 -120
-127 -121 -119
-127 -121 -118
-127 -121 -117
-127 -121 -116
-127 -121 -115
-127 -121 -114
-127 -121 -113
-127 -121 -112
-127 -121 -111
-127 -120 -128
-127 -120 -127
-127 -120 -126
-127 -120 -125
-127 -120 -124
-127 -120 -123
-127 -120 -122
-127 -120 -121
-127 -120 -120
-127 -120 -119
-127 -120 -118
-127 -120 -117
-127 -120 -116
-127 -120 -115
-127 -120 -114
-127 -120 -113
-127 -120 -112
-127 -120 -111
-127 -119 -128
-127 -119 -127
-127 -119 -126
-127 -119 -125
-127 -119 -124
-127 -119 -123
-127 -119 -122
-127 -119 -121
-127 -119 -120
-127 -119 -119
-127 -119 -118
-127 -119 -117
-127 -119 -116
-127 -119 -115
-127 -119 -114
-127 -119 -113
-127 -119 -112
-127 -119 -111
-127 -118 -128
-127 -118 -127
-127 -118 -126
-127 -118 -125
-127 -118 -124
-127 -118 -123
-127 -118 -122
-127 -118 -121
-127 -118 -120
-127 -118 -119
-127 -118 -118
-127 -118 -117
-127 -118 -116
-127 -118 -115
-127 -118 -114
-127 -118 -113
-127 -118 -112
-127 -118 -111
-127 -117 -128
-127 -117 -127
-127 -117 -126
-127 -117 -125
-127 -117 -124
-127 -117 -123
-127 -117 -122
-127 -117 -121
-127 -117 -120
-127 -117 -119
-127 -117 -118
-127 -117 -117
-127 -117 -116
-127 -117 -115
-127 -117 -114
-127 -117 -113
-127 -117 -112
-127 -117 -111
-127 -116 -128
-127 -116 -127
-127 -116 -126
-127 -116 -125
-127 -116 -124
-127 -116 -123
-127 -116 -122
-127 -116 -121
-127 -116 -120
-127 -116 -119
-127 -116 -118
-127 -116 -117
-127 -116 -116
-127 -116 -115
-127 -116 -114
-127 -116 -113
-127 -116 -112
-127 -116 -111
-127 -115 -128
-127 -115 -127
-127 -115 -126
-127 -115 -125
-127 -115 -124
-127 -115 -123
-127 -115 -122
-127 -115 -121
-127 -115 -120
-127 -115 -119
-127 -115 -118
-127 -115 -117
-127 -115 -116
-127 -115 -115
-127 -115 -114
-127 -115 -113
-127 -115 -112
-127 -115 -111
-127 -114 -128
-127 -114 -127
-127 -114 -126
-127 -114 -125
-127 -114 -124
-127 -114 -123
-127 -114 -122
-127 -114 -121
-127 -114 -120
-127 -114 -119
-127 -114 -118
-127 -114 -117
-127 -114 -116
-127 -114 -115
-127 -114 -114
-127 -114 -113
-127 -114 -112
-127 -114 -111
-127 -113 -128
-127 -113 -127
-127 -113 -126
-127 -113 -125
-127 -113 -124
-127 -113 -123
-127 -113 -122
-127 -113 -121
-127 -113 -120
-127 -113 -119
-127 -113 -118
-127 -113 -117
-127 -113 -116
-127 -113 -115
-127 -113 -114
-127 -113 -113
-127 -113 -112
-127 -113 -111
-127 -112 -128
-127 -112 -127
-127 -112 -126
-127 -112 -125
-127 -112 -124
-127 -112 -123
-127 -112 -122
-127 -112 -121
-127 -112 -120
-127 -112 -119
-127 -112 -118
-127 -112 -117
-127 -112 -116
-127 -112 -115
-127 -112 -114
-127 -112 -113
-127 -112 -112
-127 -112 -111
-127 -111 -128
-127 -111 -127
-127 -111 -126
-127 -111 -125
-127 -111 -124
-127 -111 -123
-127 -111 -122
-127 -111 -121
-127 -111 -120
-127 -111 -119
-127 -111 -118
-127 -111 -117
-127 -111 -116
-127 -111 -115
-127 -111 -114
-127 -111 -113
-127 -111 -112
-127 -111 -111
-126 -128 -128
-126 -128 -127
-126 -128 -126
-126 -128 -125
-126 -128 -124
-126 -128 -123
-126 -128 -122
-126 -128 -121
-126 -128 -120
-126 -128 -119
-126 -128 -118
-126 -128 -117
-126 -128 -116
-126 -128 -115
-126 -128 -114
-126 -128 -113
-126 -128 -112
-126 -128 -111
-126 -127 -128
-126 -127 -127
-126 -127 -126
-126 -127 -125
-126 -127 -124
-126 -127 -123
-126 -127 -122
-126 -127 -121
-126 -127 -120
-126 -127 -119
-126 -127 -118
-126 -127 -117
-126 -127 -116
-126 -127 -115
-126 -127 -114
-126 -127 -113
-126 -127 -112
-126 -127 -111
-126 -126 -128
-126 -126 -127
-126 -126 -126
-126 -126 -125
-126 -126 -124
-126 -126 -123
-126 -126 -122
-126 -126 -121
-126 -126 -120
-126 -126 -119
-126 -126 -118
-126 -126 -117
-126 -126 -116
-126 -126 -115
-126 -126 -114
-126 -126 -113
-126 -126 -112
-126 -126 -111
-126 -125 -128
-126 -125 -127
-126 -125 -126
-126 -125 -125
-126 -125 -124
-126 -125 -123
-126 -125 -122
-126 -125 -121
-126 -125 -120
-126 -125 -119
-126 -125 -118
-126 -125 -117
-126 -125 -116
-126 -125 -115
-126 -125 -114
-126 -125 -113
-126 -125 -112
-126 -125 -111
-126 -124 -128
-126 -124 -127
-126 -124 -126
-126 -124 -125
-126 -124 -124
-126 -124 -123
-126 -124 -122
-126 -124 -121
-126 -124 -120
-126 -124 -119
-126 -124 -118
-126 -124 -117
-126 -124 -116
-126 -124 -115
-126 -124 -114
-126 -124 -113
-126 -124 -112
-126 -124 -111
-126 -123 -128
-126 -123 -127
-126 -123 -126
-126 -123 -125
-126 -123 -124
-126 -123 -123
-126 -123 -122
-126 -123 -121
-126 -123 -120
-126 -123 -119
-126 -123 -118
-126 -123 -117
-126 -123 -116
-126 -123 -115
-126 -123 -114
-126 -123 -113
-126 -123 -112
-126 -123 -111
-126 -122 -128
-126 -122 -127
-126 -122 -126
-126 -122 -125
-126 -122 -124
-126 -122 -123
-126 -122 -122
-126 -122 -121
-126 -122 -120
-126 -122 -119
-126 -122 -118
-126 -122 -117
-126 -122 -116
-126 -122 -115
-126 -122 -114
-126 -122 -113
-126 -122 -112
-126 -122 -111
-126 -121 -128
-126 -121 -127
-126 -121 -126
-126 -121 -125
-126 -121 -124
-126 -121 -123
-126 -121 -122
-126 -121 -121
-126 -121 -120
-126 -121 -119
-126 -121 -118
-126 -121 -117
-126 -121 -116
-126 -121 -115
-126 -121 -114
-126 -121 -113
-126 -121 -112
-126 -121 -111
-126 -120 -128
-126 -120 -127
-126 -120 -126
-126 -120 -125
-126 -120 -124
-126 -120 -123
-126 -120 -122
-126 -120 -121
-126 -120 -120
-126 -120 -119
-126 -120 -118
-126 -120 -117
-126 -120 -116
-126 -120 -115
-126 -120 -114
-126 -120 -113
-126 -120 -112
-126 -120 -111
-126 -119 -128
-126 -119 -127
-126 -119 -126
-126 -119 -125
-126 -119 -124
-126 -119 -123
-126 -119 -122
-126 -119 -121
-126 -119 -120
-126 -119 -119
-126 -119 -118
-126 -119 -117
-126 -119 -116
-126 -119 -115
-126 -119 -114
-126 -119 -113
-126 -119 -112
-126 -119 -111
-126 -118 -128
-126 -118 -127
-126 -118 -126
-126 -118 -125
-126 -118 -124
-126 -118 -123
-126 -118 -122
-126 -118 -121
-126 -118 -120
-126 -118 -119
-126 -118 -118
-126 -118 -117
-126 -118 -116
-126 -118 -115
-126 -118 -114
-126 -118 -113
-126 -118 -112
-126 -118 -111
-126 -117 -128
-126 -117 -127
-126 -117 -126
-126 -117 -125
-126 -117 -124
-126 -117 -123
-126 -117 -122
-126 -117 -121
-126 -117 -120
-126 -117 -119
-126 -117 -118
-126 -117 -117
-126 -117 -116
-126 -117 -115
-126 -117 -114
-126 -117 -113
-126 -117 -112
-126 -117 -111
-126 -116 -128
-126 -116 -127
-126 -116 -126
-126 -116 -125
-126 -116 -124
-126 -116 -123
-126 -116 -122
-126 -116 -121
-126 -116 -120
-126 -116 -119
-126 -116 -118
-126 -116 -117
-126 -116 -116
-126 -116 -115
-126 -116 -114
-126 -116 -113
-126 -116 -112
-126 -116 -111
-126 -115 -128
-126 -115 -127
-126 -115 -126
-126 -115 -125
-126 -115 -124
-126 -115 -123
-126 -115 -122
-126 -115 -121
-126 -115 -120
-126 -115 -119
-126 -115 -118
-126 -115 -117
-126 -115 -116
-126 -115 -115
-126 -115 -114
-126 -115 -113
-126 -115 -112
-126 -115 -111
-126 -114 -128
-126 -114 -127
-126 -114 -126
-126 -114 -125
-126 -114 -124
-126 -114 -123
-126 -114 -122
-126 -114 -121
-126 -114 -120
-126 -114 -119
-126 -114 -118
-126 -114 -117
-126 -114 -116
-126 -114 -115
-126 -114 -114
-126 -114 -113
-126 -114 -112
-126 -114 -111
-126 -113 -128
-126 -113 -127
-126 -113 -126
-126 -113 -125
-126 -113 -124
-126 -113 -123
-126 -113 -122
-126 -113 -121
-126 -113 -120
-126 -113 -119
-126 -113 -118
-126 -113 -117
-126 -113 -116
-126 -113 -115
-126 -113 -114
-126 -113 -113
-126 -113 -112
-126 -113 -111
-126 -112 -128
-126 -112 -127
-126 -112 -126
-126 -112 -125
-126 -112 -124
-126 -112 -123
-126 -112 -122
-126 -112 -121
-126 -112 -120
-126 -112 -119
-126 -112 -118
-126 -112 -117
-126 -112 -116
-126 -112 -115
-126 -112 -114
-126 -112 -113
-126 -112 -112
-126 -112 -111
-126 -111 -128
-126 -111 -127
-126 -111 -126
-126 -111 -125
-126 -111 -124
-126 -111 -123
-126 -111 -122
-126 -111 -121
-126 -111 -120
-126 -111 -119
-126 -111 -118
-126 -111 -117
-126 -111 -116
-126 -111 -115
-126 -111 -114
-126 -111 -113
-126 -111 -112
-126 -111 -111
-125 -128 -128
-125 -128 -127
-125 -128 -126
-125 -128 -125
-125 -128 -124
-125 -128 -123
-125 -128 -122
-125 -128 -121
-125 -128 -120
-125 -128 -119
-125 -128 -118
-125 -128 -117
-125 -128 -116
-125 -128 -115
-125 -128 -114
-125 -128 -113
-125 -128 -112
-125 -128 -111
-125 -127 -128
-125 -127 -127
-125 -127 -126
-125 -127 -125
-125 -127 -124
-125 -127 -123
-125 -127 -122
-125 -127 -121
-125 -127 -120
-125 -127 -119
-125 -127 -118
-125 -127 -117
-125 -127 -116
-125 -127 -115
-125 -127 -114
-125 -127 -113
-125 -127 -112
-125 -127 -111
-125 -126 -128
-125 -126 -127
-125 -126 -126
-125 -126 -125
-125 -126 -124
-125 -126 -123
-125 -126 -122
-125 -126 -121
-125 -126 -120
-125 -126 -119
-125 -126 -118
-125 -126 -117
-125 -126 -116
-125 -126 -115
-125 -126 -114
-125 -126 -113
-125 -126 -112
-125 -126 -111
-125 -125 -128
-125 -125 -127
-125 -125 -126
-125 -125 -125
-125 -125 -124
-125 -125 -123
-125 -125 -122
-125 -125 -121
-125 -125 -120
-125 -125 -119
-125 -125 -118
-125 -125 -117
-125 -125 -116
-125 -125 -115
-125 -125 -114
-125 -125 -113
-125 -125 -112
-125 -125 -111
-125 -124 -128
-125 -124 -127
-125 -124 -126
-125 -124 -125
-125 -124 -124
-125 -124 -123
-125 -124 -122
-125 -124 -121
-125 -124 -120
-125 -124 -119
-125 -124 -118
-125 -124 -117
-125 -124 -116
-125 -124 -115
-125 -124 -114
-125 -124 -113
-125 -124 -112
-125 -124 -111
-125 -123 -128
-125 -123 -127
-125 -123 -126
-125 -123 -125
-125 -123 -124
-125 -123 -123
-125 -123 -122
-125 -123 -121
-125 -123 -120
-125 -123 -119
-125 -123 -118
-125 -123 -117
-125 -123 -116
-125 -123 -115
-125 -123 -114
-125 -123 -113
-125 -123 -112
-125 -123 -111
-125 -122 -128
-125 -122 -127
-125 -122 -126
-125 -122 -125
-125 -122 -124
-125 -122 -123
-125 -122 -122
-125 -122 -121
-125 -122 -120
-125 -122 -119
-125 -122 -118
-125 -122 -117
-125 -122 -116
-125 -122 -115
-125 -122 -114
-125 -122 -113
-125 -122 -112
-125 -122 -111
-125 -121 -128
-125 -121 -127
-125 -121 -126
-125 -121 -125
-125 -121 -124
-125 -121 -123
-125 -121 -122
-125 -121 -121
-125 -121 -120
-125 -121 -119
-125 -121 -118
-125 -121 -117
-125 -121 -116
-125 -121 -115
-125 -121 -114
-125 -121 -113
-125 -121 -112
-125 -121 -111
-125 -120 -128
-125 -120 -127
-125 -120 -126
-125 -120 -125
-125 -120 -124
-125 -120 -123
-125 -120 -122
-125 -120 -121
-125 -120 -120
-125 -120 -119
-125 -120 -118
-125 -120 -117
-125 -120 -116
-125 -120 -115
-125 -120 -114
-125 -120 -113
-125 -120 -112
-125 -120 -111
-125 -119 -128
-125 -119 -127
-125 -119 -126
-125 -119 -125
-125 -119 -124
-125 -119 -123
-125 -119 -122
-125 -119 -121
-125 -119 -120
-125 -119 -119
-125 -119 -118
-125 -119 -117
-125 -119 -116
-125 -119 -115
-125 -119 -114
-125 -119 -113
-125 -119 -112
-125 -119 -111
-125 -118 -128
-125 -118 -127
-125 -118 -126
-125 -118 -125
-125 -118 -124
-125 -118 -123
-125 -118 -122
-125 -118 -121
-125 -118 -120
-125 -118 -119
-125 -118 -118
-125 -118 -117
-125 -118 -116
-125 -118 -115
-125 -118 -114
-125 -118 -113
-125 -118 -112
-125 -118 -111
-125 -117 -128
-125 -117 -127
-125 -117 -126
-125 -117 -125
-125 -117 -124
-125 -117 -123
-125 -117 -122
-125 -117 -121
-125 -117 -120
-125 -117 -119
-125 -117 -118
-125 -117 -117
-125 -117 -116
-125 -117 -115
-125 -117 -114
-125 -117 -113
-125 -117 -112
-125 -117 -111
-125 -116 -128
-125 -116 -127
-125 -116 -126
-125 -116 -125
-125 -116 -124
-125 -116 -123
-125 -116 -122
-125 -116 -121
-125 -116 -120
-125 -116 -119
-125 -116 -118
-125 -116 -117
-125 -116 -116
-125 -116 -115
-125 -116 -114
-125 -116 -113
-125 -116 -112
-125 -116 -111
-125 -115 -128
-125 -115 -127
-125 -115 -126
-125 -115 -125
-125 -115 -124
-125 -115 -123
-125 -115 -122
-125 -115 -121
-125 -115 -120
-125 -115 -119
-125 -115 -118
-125 -115 -117
-125 -115 -116
-125 -115 -115
-125 -115 -114
-125 -115 -113
-125 -115 -112
-125 -115 -111
-125 -114 -128
-125 -114 -127
-125 -114 -126
-125 -114 -125
-125 -114 -124
-125 -114 -123
-125 -114 -122
-125 -114 -121
-125 -114 -120
-125 -114 -119
-125 -114 -118
-125 -114 -117
-125 -114 -116
-125 -114 -115
-125 -114 -114
-125 -114 -113
-125 -114 -112
-125 -114 -111
-125 -113 -128
-125 -113 -127
-125 -113 -126
-125 -113 -125
-125 -113 -124
-125 -113 -123
-125 -113 -122
-125 -113 -121
-125 -113 -120
-125 -113 -119
-125 -113 -118
-125 -113 -117
-125 -113 -116
-125 -113 -115
-125 -113 -114
-125 -113 -113
-125 -113 -112
-125 -113 -111
-125 -112 -128
-125 -112 -127
-125 -112 -126
-125 -112 -125
-125 -112 -124
-125 -112 -123
-125 -112 -122
-125 -112 -121
-125 -112 -120
-125 -112 -119
-125 -112 -118
-125 -112 -117
-125 -112 -116
-125 -112 -115
-125 -112 -114
-125 -112 -113
-125 -112 -112
-125 -112 -111
-125 -111 -128
-125 -111 -127
-125 -111 -126
-125 -111 -125
-125 -111 -124
-125 -111 -123
-125 -111 -122
-125 -111 -121
-125 -111 -120
-125 -111 -119
-125 -111 -118
-125 -111 -117
-125 -111 -116
-125 -111 -115
-125 -111 -114
-125 -111 -113
-125 -111 -112
-125 -111 -111
-124 -128 -128
-124 -128 -127
-124 -128 -126
-124 -128 -125
-124 -128 -124
-124 -128 -123
-124 -128 -122
-124 -128 -121
-124 -128 -120
-124 -128 -119
-124 -128 -118
-124 -128 -117
-124 -128 -116
-124 -128 -115
-124 -128 -114
-124 -128 -113
-124 -128 -112
-124 -128 -111
-124 -127 -128
-124 -127 -127
-124 -127 -126
-124 -127 -125
-124 -127 -124
-124 -127 -123
-124 -127 -122
-124 -127 -121
-124 -127 -120
-124 -127 -119
-124 -127 -118
-124 -127 -117
-124 -127 -116
-124 -127 -115
-124 -127 -114
-124 -127 -113
-124 -127 -112
-124 -127 -111
-124 -126 -128
-124 -126 -127
-124 -126 -126
-124 -126 -125
-124 -126 -124
-124 -126 -123
-124 -126 -122
-124 -126 -121
-124 -126 -120
-124 -126 -119
-124 -126 -118
-124 -126 -117
-124 -126 -116
-124 -126 -115
-124 -126 -114
-124 -126 -113
-124 -126 -112
-124 -126 -111
-124 -125 -128
-124 -125 -127
-124 -125 -126
-124 -125 -125
-124 -125 -124
-124 -125 -123
-124 -125 -122
-124 -125 -121
-124 -125 -120
-124 -125 -119
-124 -125 -118
-124 -125 -117
-124 -125 -116
-124 -125 -115
-124 -125 -114
-124 -125 -113
-124 -125 -112
-124 -125 -111
-124 -124 -128
-124 -124 -127
-124 -124 -126
-124 -124 -125
-124 -124 -124
-124 -124 -123
-124 -124 -122
-124 -124 -121
-124 -124 -120
-124 -124 -119
-124 -124 -118
-124 -124 -117
-124 -124 -116
-124 -124 -115
-124 -124 -114
-124 -124 -113
-124 -124 -112
-124 -124 -111
-124 -123 -128
-124 -123 -127
-124 -123 -126
-124 -123 -125
-124 -123 -124
-124 -123 -123
-124 -123 -122
-124 -123 -121
-124 -123 -120
-124 -123 -119
-124 -123 -118
-124 -123 -117
-124 -123 -116
-124 -123 -115
-124 -123 -114
-124 -123 -113
-124 -123 -112
-124 -123 -111
-124 -122 -128
-124 -122 -127
-124 -122 -126
-124 -122 -125
-124 -122 -124
-124 -122 -123
-124 -122 -122
-124 -122 -121
-124 -122 -120
-124 -122 -119
-124 -122 -118
-124 -122 -117
-124 -122 -116
-124 -122 -115
-124 -122 -114
-124 -122 -113
-124 -122 -112
-124 -122 -111
-124 -121 -128
-124 -121 -127
-124 -121 -126
-124 -121 -125
-124 -121 -124
-124 -121 -123
-124 -121 -122
-124 -121 -121
-124 -121 -120
-124 -121 -119
-124 -121 -118
-124 -121 -117
-124 -121 -116
-124 -121 -115
-124 -121 -114
-124 -121 -113
-124 -121 -112
-124 -121 -111
-124 -120 -128
-124 -120 -127
-124 -120 -126
-124 -120 -125
-124 -120 -124
-124 -120 -123
-124 -120 -122
-124 -120 -121
-124 -120 -120
-124 -120 -119
-124 -120 -118
-124 -120 -117
-124 -120 -116
-124 -120 -115
-124 -120 -114
-124 -120 -113
-124 -120 -112
-124 -120 -111
-124 -119 -128
-124 -119 -127
-124 -119 -126
-124 -119 -125
-124 -119 -124
-124 -119 -123
-124 -119 -122
-124 -119 -121
-124 -119 -120
-124 -119 -119
-124 -119 -118
-124 -119 -117
-124 -119 -116
-124 -119 -115
-124 -119 -114
-124 -119 -113
-124 -119 -112
-124 -119 -111
-124 -118 -128
-124 -118 -127
-124 -118 -126
-124 -118 -125
-124 -118 -124
-124 -118 -123
-124 -118 -122
-124 -118 -121
-124 -118 -120
-124 -118 -119
-124 -118 -118
-124 -118 -117
-124 -118 -116
-124 -118 -115
-124 -118 -114
-124 -118 -113
-124 -118 -112
-124 -118 -111
-124 -117 -128
-124 -117 -127
-124 -117 -126
-124 -117 -125
-124 -117 -124
-124 -117 -123
-124 -117 -122
-124 -117 -121
-124 -117 -120
-124 -117 -119
-124 -117 -118
-124 -117 -117
-124 -117 -116
-124 -117 -115
-124 -117 -114
-124 -117 -113
-124 -117 -112
-124 -117 -111
-124 -116 -128
-124 -116 -127
-124 -116 -126
-124 -116 -125
-124 -116 -124
-124 -116 -123
-124 -116 -122
-124 -116 -121
-124 -116 -120
-124 -116 -119
-124 -116 -118
-124 -116 -117
-124 -116 -116
-124 -116 -115
-124 -116 -114
-124 -116 -113
-124 -116 -112
-124 -116 -111
-124 -115 -128
-124 -115 -127
-124 -115 -126
-124 -115 -125
-124 -115 -124
-124 -115 -123
-124 -115 -122
-124 -115 -121
-124 -115 -120
-124 -115 -119
-124 -115 -118
-124 -115 -117
-124 -115 -116
-124 -115 -115
-124 -115 -114
-124 -115 -113
-124 -115 -112
-124 -115 -111
-124 -114 -128
-124 -114 -127
-124 -114 -126
-124 -114 -125
-124 -114 -124
-124 -114 -123
-124 -114 -122
-124 -114 -121
-124 -114 -120
-124 -114 -119
-124 -114 -118
-124 -114 -117
-124 -114 -116
-124 -114 -115
-124 -114 -114
-124 -114 -113
-124 -114 -112
-124 -114 -111
-124 -113 -128
-124 -113 -127
-124 -113 -126
-124 -113 -125
-124 -113 -124
-124 -113 -123
-124 -113 -122
-124 -113 -121
-124 -113 -120
-124 -113 -119
-124 -113 -118
-124 -113 -117
-124 -113 -116
-124 -113 -115
-124 -113 -114
-124 -113 -113
-124 -113 -112
-124 -113 -111
-124 -112 -128
-124 -112 -127
-124 -112 -126
-124 -112 -125
-124 -112 -124
-124 -112 -123
-124 -112 -122
-124 -112 -121
-124 -112 -120
-124 -112 -119
-124 -112 -118
-124 -112 -117
-124 -112 -116
-124 -112 -115
-124 -112 -114
-124 -112 -113
-124 -112 -112
-124 -112 -111
-124 -111 -128
-124 -111 -127
-124 -111 -126
-124 -111 -125
-124 -111 -124
-124 -111 -123
-124 -111 -122
-124 -111 -121
-124 -111 -120
-124 -111 -119
-124 -111 -118
-124 -111 -117
-124 -111 -116
-124 -111 -115
-124 -111 -114
-124 -111 -113
-124 -111 -112
-124 -111 -111
-123 -128 -128
-123 -128 -127
-123 -128 -126
-123 -128 -125
-123 -128 -124
-123 -128 -123
-123 -128 -122
-123 -128 -121
-123 -128 -120
-123 -128 -119
-123 -128 -118
-123 -128 -117
-123 -128 -116
-123 -128 -115
-123 -128 -114
-123 -128 -113
-123 -128 -112
-123 -128 -111
-123 -127 -128
-123 -127 -127
-123 -127 -126
-123 -127 -125
-123 -127 -124
-123 -127 -123
-123 -127 -122
-123 -127 -121
-123 -127 -120
-123 -127 -119
-123 -127 -118
-123 -127 -117
-123 -127 -116
-123 -127 -115
-123 -127 -114
-123 -127 -113
-123 -127 -112
-123 -127 -111
-123 -126 -128
-123 -126 -127
-123 -126 -126
-123 -126 -125
-123 -126 -124
-123 -126 -123
-123 -126 -122
-123 -126 -121
-123 -126 -120
-123 -126 -119
-123 -126 -118
-123 -126 -117
-123 -126 -116
-123 -126 -115
-123 -126 -114
-123 -126 -113
-123 -126 -112
-123 -126 -111
-123 -125 -128
-123 -125 -127
-123 -125 -126
-123 -125 -125
-123 -125 -124
-123 -125 -123
-123 -125 -122
-123 -125 -121
-123 -125 -120
-123 -125 -119
-123 -125 -118
-123 -125 -117
-123 -125 -116
-123 -125 -115
-123 -125 -114
-123 -125 -113
-123 -125 -112
-123 -125 -111
-123 -124 -128
-123 -124 -127
-123 -124 -126
-123 -124 -125
-123 -124 -124
-123 -124 -123
-123 -124 -122
-123 -124 -121
-123 -124 -120
-123 -124 -119
-123 -124 -118
-123 -124 -117
-123 -124 -116
-123 -124 -115
-123 -124 -114
-123 -124 -113
-123 -124 -112
-123 -124 -111
-123 -123 -128
-123 -123 -127
-123 -123 -126
-123 -123 -125
-123 -123 -124
-123 -123 -123
-123 -123 -122
-123 -123 -121
-123 -123 -120
-123 -123 -119
-123 -123 -118
-123 -123 -117
-123 -123 -116
-123 -123 -115
-123 -123 -114
-123 -123 -113
-123 -123 -112
-123 -123 -111
-123 -122 -128
-123 -122 -127
-123 -122 -126
-123 -122 -125
-123 -122 -124
-123 -122 -123
-123 -122 -122
-123 -122 -121
-123 -122 -120
-123 -122 -119
-123 -122 -118
-123 -122 -117
-123 -122 -116
-123 -122 -115
-123 -122 -114
-123 -122 -113
-123 -122 -112
-123 -122 -111
-123 -121 -128
-123 -121 -127
-123 -121 -126
-123 -121 -125
-123 -121 -124
-123 -121 -123
-123 -121 -122
-123 -121 -121
-123 -121 -120
-123 -121 -119
-123 -121 -118
-123 -121 -117
-123 -121 -116
-123 -121 -115
-123 -121 -114
-123 -121 -113
-123 -121 -112
-123 -121 -111
-123 -120 -128
-123 -120 -127
-123 -120 -126
-123 -120 -125
-123 -120 -124
-123 -120 -123
-123 -120 -122
-123 -120 -121
-123 -120 -120
-123 -120 -119
-123 -120 -118
-123 -120 -117
-123 -120 -116
-123 -120 -115
-123 -120 -114
-123 -120 -113
-123 -120 -112
-123 -120 -111
-123 -119 -128
-123 -119 -127
-123 -119 -126
-123 -119 -125
-123 -119 -124
-123 -119 -123
-123 -119 -122
-123 -119 -121
-123 -119 -120
-123 -119 -119
-123 -119 -118
-123 -119 -117
-123 -119 -116
-123 -119 -115
-123 -119 -114
-123 -119 -113
-123 -119 -112
-123 -119 -111
-123 -118 -128
-123 -118 -127
-123 -118 -126
-123 -118 -125
-123 -118 -124
-123 -118 -123
-123 -118 -122
-123 -118 -121
-123 -118 -120
-123 -118 -119
-123 -118 -118
-123 -118 -117
-123 -118 -116
-123 -118 -115
-123 -118 -114
-123 -118 -113
-123 -118 -112
-123 -118 -111
-123 -117 -128
-123 -117 -127
-123 -117 -126
-123 -117 -125
-123 -117 -124
-123 -117 -123
-123 -117 -122
-123 -117 -121
-123 -117 -120
-123 -117 -119
-123 -117 -118
-123 -117 -117
-123 -117 -116
-123 -117 -115
-123 -117 -114
-123 -117 -113
-123 -117 -112
-123 -117 -111
-123 -116 -128
-123 -116 -127
-123 -116 -126
-123 -116 -125
-123 -116 -124
-123 -116 -123
-123 -116 -122
-123 -116 -121
-123 -116 -120
-123 -116 -119
-123 -116 -118
-123 -116 -117
-123 -116 -116
-123 -116 -115
-123 -116 -114
-123 -116 -113
-123 -116 -112
-123 -116 -111
-123 -115 -128
-123 -115 -127
-123 -115 -126
-123 -115 -125
-123 -115 -124
-123 -115 -123
-123 -115 -122
-123 -115 -121
-123 -115 -120
-123 -115 -119
-123 -115 -118
-123 -115 -117
-123 -115 -116
-123 -115 -115
-123 -115 -114
-123 -115 -113
-123 -115 -112
-123 -115 -111
-123 -114 -128
-123 -114 -127
-123 -114 -126
-123 -114 -125
-123 -114 -124
-123 -114 -123
-123 -114 -122
-123 -114 -121
-123 -114 -120
-123 -114 -119
-123 -114 -118
-123 -114 -117
-123 -114 -116
-123 -114 -115
-123 -114 -114
-123 -114 -113
-123 -114 -112
-123 -114 -111
-123 -113 -128
-123 -113 -127
-123 -113 -126
-123 -113 -125
-123 -113 -124
-123 -113 -123
-123 -113 -122
-123 -113 -121
-123 -113 -120
-123 -113 -119
-123 -113 -118
-123 -113 -117
-123 -113 -116
-123 -113 -115
-123 -113 -114
-123 -113 -113
-123 -113 -112
-123 -113 -111
-123 -112 -128
-123 -112 -127
-123 -112 -126
-123 -112 -125
-123 -112 -124
-123 -112 -123
-123 -112 -122
-123 -112 -121
-123 -112 -120
-123 -112 -119
-123 -112 -118
-123 -112 -117
-123 -112 -116
-123 -112 -115
-123 -112 -114
-123 -112 -113
-123 -112 -112
-123 -112 -111
-123 -111 -128
-123 -111 -127
-123 -111 -126
-123 -111 -125
-123 -111 -124
-123 -111 -123
-123 -111 -122
-123 -111 -121
-123 -111 -120
-123 -111 -119
-123 -111 -118
-123 -111 -117
-123 -111 -116
-123 -111 -115
-123 -111 -114
-123 -111 -113
-123 -111 -112
-123 -111 -111
-122 -128 -128
-122 -128 -127
-122 -128 -126
-122 -128 -125
-122 -128 -124
-122 -128 -123
-122 -128 -122
-122 -128 -121
-122 -128 -120
-122 -128 -119
-122 -128 -118
-122 -128 -117
-122 -128 -116
-122 -128 -115
-122 -128 -114
-122 -128 -113
-122 -128 -112
-122 -128 -111
-122 -127 -128
-122 -127 -127
-122 -127 -126
-122 -127 -125
-122 -127 -124
-122 -127 -123
-122 -127 -122
-122 -127 -121
-122 -127 -120
-122 -127 -119
-122 -127 -118
-122 -127 -117
-122 -127 -116
-122 -127 -115
-122 -127 -114
-122 -127 -113
-122 -127 -112
-122 -127 -111
-122 -126 -128
-122 -126 -127
-122 -126 -126
-122 -126 -125
-122 -126 -124
-122 -126 -123
-122 -126 -122
-122 -126 -121
-122 -126 -120
-122 -126 -119
-122 -126 -118
-122 -126 -117
-122 -126 -116
-122 -126 -115
-122 -126 -114
-122 -126 -113
-122 -126 -112
-122 -126 -111
-122 -125 -128
-122 -125 -127
-122 -125 -126
-122 -125 -125
-122 -125 -124
-122 -125 -123
-122 -125 -122
-122 -125 -121
-122 -125 -120
-122 -125 -119
-122 -125 -118
-122 -125 -117
-122 -125 -116
-122 -125 -115
-122 -125 -114
-122 -125 -113
-122 -125 -112
-122 -125 -111
-122 -124 -128
-122 -124 -127
-122 -124 -126
-122 -124 -125
-122 -124 -124
-122 -124 -123
-122 -124 -122
-122 -124 -121
-122 -124 -120
-122 -124 -119
-122 -124 -118
-122 -124 -117
-122 -124 -116
-122 -124 -115
-122 -124 -114
-122 -124 -113
-122 -124 -112
-122 -124 -111
-122 -123 -128
-122 -123 -127
-122 -123 -126
-122 -123 -125
-122 -123 -124
-122 -123 -123
-122 -123 -122
-122 -123 -121
-122 -123 -120
-122 -123 -119
-122 -123 -118
-122 -123 -117
-122 -123 -116
-122 -123 -115
-122 -123 -114
-122 -123 -113
-122 -123 -112
-122 -123 -111
-122 -122 -128
-122 -122 -127
-122 -122 -126
-122 -122 -125
-122 -122 -124
-122 -122 -123
-122 -122 -122
-122 -122 -121
-122 -122 -120
-122 -122 -119
-122 -122 -118
-122 -122 -117
-122 -122 -116
-122 -122 -115
-122 -122 -114
-122 -122 -113
-122 -122 -112
-122 -122 -111
-122 -121 -128
-122 -121 -127
-122 -121 -126
-122 -121 -125
-122 -121 -124
-122 -121 -123
-122 -121 -122
-122 -121 -121
-122 -121 -120
-122 -121 -119
-122 -121 -118
-122 -121 -117
-122 -121 -116
-122 -121 -115
-122 -121 -114
-122 -121 -113
-122 -121 -112
-122 -121 -111
-122 -120 -128
-122 -120 -127
-122 -120 -126
-122 -120 -125
-122 -120 -124
-122 -120 -123
-122 -120 -122
-122 -120 -121
-122 -120 -120
-122 -120 -119
-122 -120 -118
-122 -120 -117
-122 -120 -116
-122 -120 -115
-122 -120 -114
-122 -120 -113
-122 -120 -112
-122 -120 -111
-122 -119 -128
-122 -119 -127
-122 -119 -126
-122 -119 -125
-122 -119 -124
-122 -119 -123
-122 -119 -122
-122 -119 -121
-122 -119 -120
-122 -119 -119
-122 -119 -118
-122 -119 -117
-122 -119 -116
-122 -119 -115
-122 -119 -114
-122 -119 -113
-122 -119 -112
-122 -119 -111
-122 -118 -128
-122 -118 -127
-122 -118 -126
-122 -118 -125
-122 -118 -124
-122 -118 -123
-122 -118 -122
-122 -118 -121
-122 -118 -120
-122 -118 -119
-122 -118 -118
-122 -118 -117
-122 -118 -116
-122 -118 -115
-122 -118 -114
-122 -118 -113
-122 -118 -112
-122 -118 -111
-122 -117 -128
-122 -117 -127
-122 -117 -126
-122 -117 -125
-122 -117 -124
-122 -117 -123
-122 -117 -122
-122 -117 -121
-122 -117 -120
-122 -117 -119
-122 -117 -118
-122 -117 -117
-122 -117 -116
-122 -117 -115
-122 -117 -114
-122 -117 -113
-122 -117 -112
-122 -117 -111
-122 -116 -128
-122 -116 -127
-122 -116 -126
-122 -116 -125
-122 -116 -124
-122 -116 -123
-122 -116 -122
-122 -116 -121
-122 -116 -120
-122 -116 -119
-122 -116 -118
-122 -116 -117
-122 -116 -116
-122 -116 -115
-122 -116 -114
-122 -116 -113
-122 -116 -112
-122 -116 -111
-122 -115 -128
-122 -115 -127
-122 -115 -126
-122 -115 -125
-122 -115 -124
-122 -115 -123
-122 -115 -122
-122 -115 -121
-122 -115 -120
-122 -115 -119
-122 -115 -118
-122 -115 -117
-122 -115 -116
-122 -115 -115
-122 -115 -114
-122 -115 -113
-122 -115 -112
-122 -115 -111
-122 -114 -128
-122 -114 -127
-122 -114 -126
-122 -114 -125
-122 -114 -124
-122 -114 -123
-122 -114 -122
-122 -114 -121
-122 -114 -120
-122 -114 -119
-122 -114 -118
-122 -114 -117
-122 -114 -116
-122 -114 -115
-122 -114 -114
-122 -114 -113
-122 -114 -112
-122 -114 -111
-122 -113 -128
-122 -113 -127
-122 -113 -126
-122 -113 -125
-122 -113 -124
-122 -113 -123
-122 -113 -122
-122 -113 -121
-122 -113 -120
-122 -113 -119
-122 -113 -118
-122 -113 -117
-122 -113 -116
-122 -113 -115
-122 -113 -114
-122 -113 -113
-122 -113 -112
-122 -113 -111
-122 -112 -128
-122 -112 -127
-122 -112 -126
-122 -112 -125
-122 -112 -124
-122 -112 -123
-122 -112 -122
-122 -112 -121
-122 -112 -120
-122 -112 -119
-122 -112 -118
-122 -112 -117
-122 -112 -116
-122 -112 -115
-122 -112 -114
-122 -112 -113
-122 -112 -112
-122 -112 -111
-122 -111 -128
-122 -111 -127
-122 -111 -126
-122 -111 -125
-122 -111 -124
-122 -111 -123
-122 -111 -122
-122 -111 -121
-122 -111 -120
-122 -111 -119
-122 -111 -118
-122 -111 -117
-122 -111 -116
-122 -111 -115
-122 -111 -114
-122 -111 -113
-122 -111 -112
-122 -111 -111
-121 -128 -128
-121 -128 -127
-121 -128 -126
-121 -128 -125
-121 -128 -124
-121 -128 -123
-121 -128 -122
-121 -128 -121
-121 -128 -120
-121 -128 -119
-121 -128 -118
-121 -128 -117
-121 -128 -116
-121 -128 -115
-121 -128 -114
-121 -128 -113
-121 -128 -112
-121 -128 -111
-121 -127 -128
-121 -127 -127
-121 -127 -126
-121 -127 -125
-121 -127 -124
-121 -127 -123
-121 -127 -122
-121 -127 -121
-121 -127 -120
-121 -127 -119
-121 -127 -118
-121 -127 -117
-121 -127 -116
-121 -127 -115
-121 -127 -114
-121 -127 -113
-121 -127 -112
-121 -127 -111
-121 -126 -128
-121 -126 -127
-121 -126 -126
-121 -126 -125
-121 -126 -124
-121 -126 -123
-121 -126 -122
-121 -126 -121
-121 -126 -120
-121 -126 -119
-121 -126 -118
-121 -126 -117
-121 -126 -116
-121 -126 -115
-121 -126 -114
-121 -126 -113
-121 -126 -112
-121 -126 -111
-121 -125 -128
-121 -125 -127
-121 -125 -126
-121 -125 -125
-121 -125 -124
-121 -125 -123
-121 -125 -122
-121 -125 -121
-121 -125 -120
-121 -125 -119
-121 -125 -118
-121 -125 -117
-121 -125 -116
-121 -125 -115
-121 -125 -114
-121 -125 -113
-121 -125 -112
-121 -125 -111
-121 -124 -128
-121 -124 -127
-121 -124 -126
-121 -124 -125
-121 -124 -124
-121 -124 -123
-121 -124 -122
-121 -124 -121
-121 -124 -120
-121 -124 -119
-121 -124 -118
-121 -124 -117
-121 -124 -116
-121 -124 -115
-121 -124 -114
-121 -124 -113
-121 -124 -112
-121 -124 -111
-121 -123 -128
-121 -123 -127
-121 -123 -126
-121 -123 -125
-121 -123 -124
-121 -123 -123
-121 -123 -122
-121 -123 -121
-121 -123 -120
-121 -123 -119
-121 -123 -118
-121 -123 -117
-121 -123 -116
-121 -123 -115
-121 -123 -114
-121 -123 -113
-121 -123 -112
-121 -123 -111
-121 -122 -128
-121 -122 -127
-121 -122 -126
-121 -122 -125
-121 -122 -124
-121 -122 -123
-121 -122 -122
-121 -122 -121
-121 -122 -120
-121 -122 -119
-121 -122 -118
-121 -122 -117
-121 -122 -116
-121 -122 -115
-121 -122 -114
-121 -122 -113
-121 -122 -112
-121 -122 -111
-121 -121 -128
-121 -121 -127
-121 -121 -126
-121 -121 -125
-121 -121 -124
-121 -121 -123
-121 -121 -122
-121 -121 -121
-121 -121 -120
-121 -121 -119
-121 -121 -118
-121 -121 -117
-121 -121 -116
-121 -121 -115
-121 -121 -114
-121 -121 -113
-121 -121 -112
-121 -121 -111
-121 -120 -128
-121 -120 -127
-121 -120 -126
-121 -120 -125
-121 -120 -124
-121 -120 -123
-121 -120 -122
-121 -120 -121
-121 -120 -120
-121 -120 -119
-121 -120 -118
-121 -120 -117
-121 -120 -116
-121 -120 -115
-121 -120 -114
-121 -120 -113
-121 -120 -112
-121 -120 -111
-121 -119 -128
-121 -119 -127
-121 -119 -126
-121 -119 -125
-121 -119 -124
-121 -119 -123
-121 -119 -122
-121 -119 -121
-121 -119 -120
-121 -119 -119
-121 -119 -118
-121 -119 -117
-121 -119 -116
-121 -119 -115
-121 -119 -114
-121 -119 -113
-121 -119 -112
-121 -119 -111
-121 -118 -128
-121 -118 -127
-121 -118 -126
-121 -118 -125
-121 -118 -124
-121 -118 -123
-121 -118 -122
-121 -118 -121
-121 -118 -120
-121 -118 -119
-121 -118 -118
-121 -118 -117
-121 -118 -116
-121 -118 -115
-121 -118 -114
-121 -118 -113
-121 -118 -112
-121 -118 -111
-121 -117 -128
-121 -117 -127
-121 -117 -126
-121 -117 -125
-121 -117 -124
-121 -117 -123
-121 -117 -122
-121 -117 -121
-121 -117 -120
-121 -117 -119
-121 -117 -118
-121 -117 -117
-121 -117 -116
-121 -117 -115
-121 -117 -114
-121 -117 -113
-121 -117 -112
-121 -117 -111
-121 -116 -128
-121 -116 -127
-121 -116 -126
-121 -116 -125
-121 -116 -124
-121 -116 -123
-121 -116 -122
-121 -116 -121
-121 -116 -120
-121 -116 -119
-121 -116 -118
-121 -116 -117
-121 -116 -116
-121 -116 -115
-121 -116 -114
-121 -116 -113
-121 -116 -112
-121 -116 -111
-121 -115 -128
-121 -115 -127
-121 -115 -126
-121 -115 -125
-121 -115 -124
-121 -115 -123
-121 -115 -122
-121 -115 -121
-121 -115 -120
-121 -115 -119
-121 -115 -118
-121 -115 -117
-121 -115 -116
-121 -115 -115
-121 -115 -114
-121 -115 -113
-121 -115 -112
-121 -115 -111
-121 -114 -128
-121 -114 -127
-121 -114 -126
-121 -114 -125
-121 -114 -124
-121 -114 -123
-121 -114 -122
-121 -114 -121
-121 -114 -120
-121 -114 -119
-121 -114 -118
-121 -114 -117
-121 -114 -116
-121 -114 -115
-121 -114 -114
-121 -114 -113
-121 -114 -112
-121 -114 -111
-121 -113 -128
-121 -113 -127
-121 -113 -126
-121 -113 -125
-121 -113 -124
-121 -113 -123
-121 -113 -122
-121 -113 -121
-121 -113 -120
-121 -113 -119
-121 -113 -118
-121 -113 -117
-121 -113 -116
-121 -113 -115
-121 -113 -114
-121 -113 -113
-121 -113 -112
-121 -113 -111
-121 -112 -128
-121 -112 -127
-121 -112 -126
-121 -112 -125
-121 -112 -124
-121 -112 -123
-121 -112 -122
-121 -112 -121
-121 -112 -120
-121 -112 -119
-121 -112 -118
-121 -112 -117
-121 -112 -116
-121 -112 -115
-121 -112 -114
-121 -112 -113
-121 -112 -112
-121 -112 -111
-121 -111 -128
-121 -111 -127
-121 -111 -126
-121 -111 -125
-121 -111 -124
-121 -111 -123
-121 -111 -122
-121 -111 -121
-121 -111 -120
-121 -111 -119
-121 -111 -118
-121 -111 -117
-121 -111 -116
-121 -111 -115
-121 -111 -114
-121 -111 -113
-121 -111 -112
-121 -111 -111
-120 -128 -128
-120 -128 -127
-120 -128 -126
-120 -128 -125
-120 -128 -124
-120 -128 -123
-120 -128 -122
-120 -128 -121
-120 -128 -120
-120 -128 -119
-120 -128 -118
-120 -128 -117
-120 -128 -116
-120 -128 -115
-120 -128 -114
-120 -128 -113
-120 -128 -112
-120 -128 -111
-120 -127 -128
-120 -127 -127
-120 -127 -126
-120 -127 -125
-120 -127 -124
-120 -127 -123
-120 -127 -122
-120 -127 -121
-120 -127 -120
-120 -127 -119
-120 -127 -118
-120 -127 -117
-120 -127 -116
-120 -127 -115
-120 -127 -114
-120 -127 -113
-120 -127 -112
-120 -127 -111
-120 -126 -128
-120 -126 -127
-120 -126 -126
-120 -126 -125
-120 -126 -124
-120 -126 -123
-120 -126 -122
-120 -126 -121
-120 -126 -120
-120 -126 -119
-120 -126 -118
-120 -126 -117
-120 -126 -116
-120 -126 -115
-120 -126 -114
-120 -126 -113
-120 -126 -112
-120 -126 -111
-120 -125 -128
-120 -125 -127
-120 -125 -126
-120 -125 -125
-120 -125 -124
-120 -125 -123
-120 -125 -122
-120 -125 -121
-120 -125 -120
-120 -125 -119
-120 -125 -118
-120 -125 -117
-120 -125 -116
-120 -125 -115
-120 -125 -114
-120 -125 -113
-120 -125 -112
-120 -125 -111
-120 -124 -128
-120 -124 -127
-120 -124 -126
-120 -124 -125
-120 -124 -124
-120 -124 -123
-120 -124 -122
-120 -124 -121
-120 -124 -120
-120 -124 -119
-120 -124 -118
-120 -124 -117
-120 -124 -116
-120 -124 -115
-120 -124 -114
-120 -124 -113
-120 -124 -112
-120 -124 -111
-120 -123 -128
-120 -123 -127
-120 -123 -126
-120 -123 -125
-120 -123 -124
-120 -123 -123
-120 -123 -122
-120 -123 -121
-120 -123 -120
-120 -123 -119
-120 -123 -118
-120 -123 -117
-120 -123 -116
-120 -123 -115
-120 -123 -114
-120 -123 -113
-120 -123 -112
-120 -123 -111
-120 -122 -128
-120 -122 -127
-120 -122 -126
-120 -122 -125
-120 -122 -124
-120 -122 -123
-120 -122 -122
-120 -122 -121
-120 -122 -120
-120 -122 -119
-120 -122 -118
-120 -122 -117
-120 -122 -116
-120 -122 -115
-120 -122 -114
-120 -122 -113
-120 -122 -112
-120 -122 -111
-120 -121 -128
-120 -121 -127
-120 -121 -126
-120 -121 -125
-120 -121 -124
-120 -121 -123
-120 -121 -122
-120 -121 -121
-120 -121 -120
-120 -121 -119
-120 -121 -118
-120 -121 -117
-120 -121 -116
-120 -121 -115
-120 -121 -114
-120 -121 -113
-120 -121 -112
-120 -121 -111
-120 -120 -128
-120 -120 -127
-120 -120 -126
-120 -120 -125
-120 -120 -124
-120 -120 -123
-120 -120 -122
-120 -120 -121
-120 -120 -120
-120 -120 -119
-120 -120 -118
-120 -120 -117
-120 -120 -116
-120 -120 -115
-120 -120 -114
-120 -120 -113
-120 -120 -112
-120 -120 -111
-120 -119 -128
-120 -119 -127
-120 -119 -126
-120 -119 -125
-120 -119 -124
-120 -119 -123
-120 -119 -122
-120 -119 -121
-120 -119 -120
-120 -119 -119
-120 -119 -118
-120 -119 -117
-120 -119 -116
-120 -119 -115
-120 -119 -114
-120 -119 -113
-120 -119 -112
-120 -119 -111
-120 -118 -128
-120 -118 -127
-120 -118 -126
-120 -118 -125
-120 -118 -124
-120 -118 -123
-120 -118 -122
-120 -118 -121
-120 -118 -120
-120 -118 -119
-120 -118 -118
-120 -118 -117
-120 -118 -116
-120 -118 -115
-120 -118 -114
-120 -118 -113
-120 -118 -112
-120 -118 -111
-120 -117 -128
-120 -117 -127
-120 -117 -126
-120 -117 -125
-120 -117 -124
-120 -117 -123
-120 -117 -122
-120 -117 -121
-120 -117 -120
-120 -117 -119
-120 -117 -118
-120 -117 -117
-120 -117 -116
-120 -117 -115
-120 -117 -114
-120 -117 -113
-120 -117 -112
-120 -117 -111
-120 -116 -128
-120 -116 -127
-120 -116 -126
-120 -116 -125
-120 -116 -124
-120 -116 -123
-120 -116 -122
-120 -116 -121
-120 -116 -120
-120 -116 -119
-120 -116 -118
-120 -116 -117
-120 -116 -116
-120 -116 -115
-120 -116 -114
-120 -116 -113
-120 -116 -112
-120 -116 -111
-120 -115 -128
-120 -115 -127
-120 -115 -126
-120 -115 -125
-120 -115 -124
-120 -115 -123
-120 -115 -122
-120 -115 -121
-120 -115 -120
-120 -115 -119
-120 -115 -118
-120 -115 -117
-120 -115 -116
-120 -115 -115
-120 -115 -114
-120 -115 -113
-120 -115 -112
-120 -115 -111
-120 -114 -128
-120 -114 -127
-120 -114 -126
-120 -114 -125
-120 -114 -124
-120 -114 -123
-120 -114 -122
-120 -114 -121
-120 -114 -120
-120 -114 -119
-120 -114 -118
-120 -114 -117
-120 -114 -116
-120 -114 -115
-120 -114 -114
-120 -114 -113
-120 -114 -112
-120 -114 -111
-120 -113 -128
-120 -113 -127
-120 -113 -126
-120 -113 -125
-120 -113 -124
-120 -113 -123
-120 -113 -122
-120 -113 -121
-120 -113 -120
-120 -113 -119
-120 -113 -118
-120 -113 -117
-120 -113 -116
-120 -113 -115
-120 -113 -114
-120 -113 -113
-120 -113 -112
-120 -113 -111
-120 -112 -128
-120 -112 -127
-120 -112 -126
-120 -112 -125
-120 -112 -124
-120 -112 -123
-120 -112 -122
-120 -112 -121
-120 -112 -120
-120 -112 -119
-120 -112 -118
-120 -112 -117
-120 -112 -116
-120 -112 -115
-120 -112 -114
-120 -112 -113
-120 -112 -112
-120 -112 -111
-120 -111 -128
-120 -111 -127
-120 -111 -126
-120 -111 -125
-120 -111 -124
-120 -111 -123
-120 -111 -122
-120 -111 -121
-120 -111 -120
-120 -111 -119
-120 -111 -118
-120 -111 -117
-120 -111 -116
-120 -111 -115
-120 -111 -114
-120 -111 -113
-120 -111 -112
-120 -111 -111
-119 -128 -128
-119 -128 -127
-119 -128 -126
-119 -128 -125
-119 -128 -124
-119 -128 -123
-119 -128 -122
-119 -128 -121
-119 -128 -120
-119 -128 -119
-119 -128 -118
-119 -128 -117
-119 -128 -116
-119 -128 -115
-119 -128 -114
-119 -128 -113
-119 -128 -112
-119 -128 -111
-119 -127 -128
-119 -127 -127
-119 -127 -126
-119 -127 -125
-119 -127 -124
-119 -127 -123
-119 -127 -122
-119 -127 -121
-119 -127 -120
-119 -127 -119
-119 -127 -118
-119 -127 -117
-119 -127 -116
-119 -127 -115
-119 -127 -114
-119 -127 -113
-119 -127 -112
-119 -127 -111
-119 -126 -128
-119 -126 -127
-119 -126 -126
-119 -126 -125
-119 -126 -124
-119 -126 -123
-119 -126 -122
-119 -126 -121
-119 -126 -120
-119 -126 -119
-119 -126 -118
-119 -126 -117
-119 -126 -116
-119 -126 -115
-119 -126 -114
-119 -126 -113
-119 -126 -112
-119 -126 -111
-119 -125 -128
-119 -125 -127
-119 -125 -126
-119 -125 -125
-119 -125 -124
-119 -125 -123
-119 -125 -122
-119 -125 -121
-119 -125 -120
-119 -125 -119
-119 -125 -118
-119 -125 -117
-119 -125 -116
-119 -125 -115
-119 -125 -114
-119 -125 -113
-119 -125 -112
-119 -125 -111
-119 -124 -128
-119 -124 -127
-119 -124 -126
-119 -124 -125
-119 -124 -124
-119 -124 -123
-119 -124 -122
-119 -124 -121
-119 -124 -120
-119 -124 -119
-119 -124 -118
-119 -124 -117
-119 -124 -116
-119 -124 -115
-119 -124 -114
-119 -124 -113
-119 -124 -112
-119 -124 -111
-119 -123 -128
-119 -123 -127
-119 -123 -126
-119 -123 -125
-119 -123 -124
-119 -123 -123
-119 -123 -122
-119 -123 -121
-119 -123 -120
-119 -123 -119
-119 -123 -118
-119 -123 -117
-119 -123 -116
-119 -123 -115
-119 -123 -114
-119 -123 -113
-119 -123 -112
-119 -123 -111
-119 -122 -128
-119 -122 -127
-119 -122 -126
-119 -122 -125
-119 -122 -124
-119 -122 -123
-119 -122 -122
-119 -122 -121
-119 -122 -120
-119 -122 -119
-119 -122 -118
-119 -122 -117
-119 -122 -116
-119 -122 -115
-119 -122 -114
-119 -122 -113
-119 -122 -112
-119 -122 -111
-119 -121 -128
-119 -121 -127
-119 -121 -126
-119 -121 -125
-119 -121 -124
-119 -121 -123
-119 -121 -122
-119 -121 -121
-119 -121 -120
-119 -121 -119
-119 -121 -118
-119 -121 -117
-119 -121 -116
-119 -121 -115
-119 -121 -114
-119 -121 -113
-119 -121 -112
-119 -121 -111
-119 -120 -128
-119 -120 -127
-119 -120 -126
-119 -120 -125
-119 -120 -124
-119 -120 -123
-119 -120 -122
-119 -120 -121
-119 -120 -120
-119 -120 -119
-119 -120 -118
-119 -120 -117
-119 -120 -116
-119 -120 -115
-119 -120 -114
-119 -120 -113
-119 -120 -112
-119 -120 -111
-119 -119 -128
-119 -119 -127
-119 -119 -126
-119 -119 -125
-119 -119 -124
-119 -119 -123
-119 -119 -122
-119 -119 -121
-119 -119 -120
-119 -119 -119
-119 -119 -118
-119 -119 -117
-119 -119 -116
-119 -119 -115
-119 -119 -114
-119 -119 -113
-119 -119 -112
-119 -119 -111
-119 -118 -128
-119 -118 -127
-119 -118 -126
-119 -118 -125
-119 -118 -124
-119 -118 -123
-119 -118 -122
-119 -118 -121
-119 -118 -120
-119 -118 -119
-119 -118 -118
-119 -118 -117
-119 -118 -116
-119 -118 -115
-119 -118 -114
-119 -118 -113
-119 -118 -112
-119 -118 -111
-119 -117 -128
-119 -117 -127
-119 -117 -126
-119 -117 -125
-119 -117 -124
-119 -117 -123
-119 -117 -122
-119 -117 -121
-119 -117 -120
-119 -117 -119
-119 -117 -118
-119 -117 -117
-119 -117 -116
-119 -117 -115
-119 -117 -114
-119 -117 -113
-119 -117 -112
-119 -117 -111
-119 -116 -128
-119 -116 -127
-119 -116 -126
-119 -116 -125
-119 -116 -124
-119 -116 -123
-119 -116 -122
-119 -116 -121
-119 -116 -120
-119 -116 -119
-119 -116 -118
-119 -116 -117
-119 -116 -116
-119 -116 -115
-119 -116 -114
-119 -116 -113
-119 -116 -112
-119 -116 -111
-119 -115 -128
-119 -115 -127
-119 -115 -126
-119 -115 -125
-119 -115 -124
-119 -115 -123
-119 -115 -122
-119 -115 -121
-119 -115 -120
-119 -115 -119
-119 -115 -118
-119 -115 -117
-119 -115 -116
-119 -115 -115
-119 -115 -114
-119 -115 -113
-119 -115 -112
-119 -115 -111
-119 -114 -128
-119 -114 -127
-119 -114 -126
-119 -114 -125
-119 -114 -124
-119 -114 -123
-119 -114 -122
-119 -114 -121
-119 -114 -120
-119 -114 -119
-119 -114 -118
-119 -114 -117
-119 -114 -116
-119 -114 -115
-119 -114 -114
-119 -114 -113
-119 -114 -112
-119 -114 -111
-119 -113 -128
-119 -113 -127
-119 -113 -126
-119 -113 -125
-119 -113 -124
-119 -113 -123
-119 -113 -122
-119 -113 -121
-119 -113 -120
-119 -113 -119
-119 -113 -118
-119 -113 -117
-119 -113 -116
-119 -113 -115
-119 -113 -114
-119 -113 -113
-119 -113 -112
-119 -113 -111
-119 -112 -128
-119 -112 -127
-119 -112 -126
-119 -112 -125
-119 -112 -124
-119 -112 -123
-119 -112 -122
-119 -112 -121
-119 -112 -120
-119 -112 -119
-119 -112 -118
-119 -112 -117
-119 -112 -116
-119 -112 -115
-119 -112 -114
-119 -112 -113
-119 -112 -112
-119 -112 -111
-119 -111 -128
-119 -111 -127
-119 -111 -126
-119 -111 -125
-119 -111 -124
-119 -111 -123
-119 -111 -122
-119 -111 -121
-119 -111 -120
-119 -111 -119
-119 -111 -118
-119 -111 -117
-119 -111 -116
-119 -111 -115
-119 -111 -114
-119 -111 -113
-119 -111 -112
-119 -111 -111
-118 -128 -128
-118 -128 -127
-118 -128 -126
-118 -128 -125
-118 -128 -124
-118 -128 -123
-118 -128 -122
-118 -128 -121
-118 -128 -120
-118 -128 -119
-118 -128 -118
-118 -128 -117
-118 -128 -116
-118 -128 -115
-118 -128 -114
-118 -128 -113
-118 -128 -112
-118 -128 -111
-118 -127 -128
-118 -127 -127
-118 -127 -126
-118 -127 -125
-118 -127 -124
-118 -127 -123
-118 -127 -122
-118 -127 -121
-118 -127 -120
-118 -127 -119
-118 -127 -118
-118 -127 -117
-118 -127 -116
-118 -127 -115
-118 -127 -114
-118 -127 -113
-118 -127 -112
-118 -127 -111
-118 -126 -128
-118 -126 -127
-118 -126 -126
-118 -126 -125
-118 -126 -124
-118 -126 -123
-118 -126 -122
-118 -126 -121
-118 -126 -120
-118 -126 -119
-118 -126 -118
-118 -126 -117
-118 -126 -116
-118 -126 -115
-118 -126 -114
-118 -126 -113
-118 -126 -112
-118 -126 -111
-118 -125 -128
-118 -125 -127
-118 -125 -126
-118 -125 -125
-118 -125 -124
-118 -125 -123
-118 -125 -122
-118 -125 -121
-118 -125 -120
-118 -125 -119
-118 -125 -118
-118 -125 -117
-118 -125 -116
-118 -125 -115
-118 -125 -114
-118 -125 -113
-118 -125 -112
-118 -125 -111
-118 -124 -128
-118 -124 -127
-118 -124 -126
-118 -124 -125
-118 -124 -124
-118 -124 -123
-118 -124 -122
-118 -124 -121
-118 -124 -120
-118 -124 -119
-118 -124 -118
-118 -124 -117
-118 -124 -116
-118 -124 -115
-118 -124 -114
-118 -124 -113
-118 -124 -112
-118 -124 -111
-118 -123 -128
-118 -123 -127
-118 -123 -126
-118 -123 -125
-118 -123 -124
-118 -123 -123
-118 -123 -122
-118 -123 -121
-118 -123 -120
-118 -123 -119
-118 -123 -118
-118 -123 -117
-118 -123 -116
-118 -123 -115
-118 -123 -114
-118 -123 -113
-118 -123 -112
-118 -123 -111
-118 -122 -128
-118 -122 -127
-118 -122 -126
-118 -122 -125
-118 -122 -124
-118 -122 -123
-118 -122 -122
-118 -122 -121
-118 -122 -120
-118 -122 -119
-118 -122 -118
-118 -122 -117
-118 -122 -116
-118 -122 -115
-118 -122 -114
-118 -122 -113
-118 -122 -112
-118 -122 -111
-118 -121 -128
-118 -121 -127
-118 -121 -126
-118 -121 -125
-118 -121 -124
-118 -121 -123
-118 -121 -122
-118 -121 -121
-118 -121 -120
-118 -121 -119
-118 -121 -118
-118 -121 -117
-118 -121 -116
-118 -121 -115
-118 -121 -114
-118 -121 -113
-118 -121 -112
-118 -121 -111
-118 -120 -128
-118 -120 -127
-118 -120 -126
-118 -120 -125
-118 -120 -124
-118 -120 -123
-118 -120 -122
-118 -120 -121
-118 -120 -120
-118 -120 -119
-118 -120 -118
-118 -120 -117
-118 -120 -116
-118 -120 -115
-118 -120 -114
-118 -120 -113
-118 -120 -112
-118 -120 -111
-118 -119 -128
-118 -119 -127
-118 -119 -126
-118 -119 -125
-118 -119 -124
-118 -119 -123
-118 -119 -122
-118 -119 -121
-118 -119 -120
-118 -119 -119
-118 -119 -118
-118 -119 -117
-118 -119 -116
-118 -119 -115
-118 -119 -114
-118 -119 -113
-118 -119 -112
-118 -119 -111
-118 -118 -128
-118 -118 -127
-118 -118 -126
-118 -118 -125
-118 -118 -124
-118 -118 -123
-118 -118 -122
-118 -118 -121
-118 -118 -120
-118 -118 -119
-118 -118 -118
-118 -118 -117
-118 -118 -116
-118 -118 -115
-118 -118 -114
-118 -118 -113
-118 -118 -112
-118 -118 -111
-118 -117 -128
-118 -117 -127
-118 -117 -126
-118 -117 -125
-118 -117 -124
-118 -117 -123
-118 -117 -122
-118 -117 -121
-118 -117 -120
-118 -117 -119
-118 -117 -118
-118 -117 -117
-118 -117 -116
-118 -117 -115
-118 -117 -114
-118 -117 -113
-118 -117 -112
-118 -117 -111
-118 -116 -128
-118 -116 -127
-118 -116 -126
-118 -116 -125
-118 -116 -124
-118 -116 -123
-118 -116 -122
-118 -116 -121
-118 -116 -120
-118 -116 -119
-118 -116 -118
-118 -116 -117
-118 -116 -116
-118 -116 -115
-118 -116 -114
-118 -116 -113
-118 -116 -112
-118 -116 -111
-118 -115 -128
-118 -115 -127
-118 -115 -126
-118 -115 -125
-118 -115 -124
-118 -115 -123
-118 -115 -122
-118 -115 -121
-118 -115 -120
-118 -115 -119
-118 -115 -118
-118 -115 -117
-118 -115 -116
-118 -115 -115
-118 -115 -114
-118 -115 -113
-118 -115 -112
-118 -115 -111
-118 -114 -128
-118 -114 -127
-118 -114 -126
-118 -114 -125
-118 -114 -124
-118 -114 -123
-118 -114 -122
-118 -114 -121
-118 -114 -120
-118 -114 -119
-118 -114 -118
-118 -114 -117
-118 -114 -116
-118 -114 -115
-118 -114 -114
-118 -114 -113
-118 -114 -112
-118 -114 -111
-118 -113 -128
-118 -113 -127
-118 -113 -126
-118 -113 -125
-118 -113 -124
-118 -113 -123
-118 -113 -122
-118 -113 -121
-118 -113 -120
-118 -113 -119
-118 -113 -118
-118 -113 -117
-118 -113 -116
-118 -113 -115
-118 -113 -114
-118 -113 -113
-118 -113 -112
-118 -113 -111
-118 -112 -128
-118 -112 -127
-118 -112 -126
-118 -112 -125
-118 -112 -124
-118 -112 -123
-118 -112 -122
-118 -112 -121
-118 -112 -120
-118 -112 -119
-118 -112 -118
-118 -112 -117
-118 -112 -116
-118 -112 -115
-118 -112 -114
-118 -112 -113
-118 -112 -112
-118 -112 -111
-118 -111 -128
-118 -111 -127
-118 -111 -126
-118 -111 -125
-118 -111 -124
-118 -111 -123
-118 -111 -122
-118 -111 -121
-118 -111 -120
-118 -111 -119
-118 -111 -118
-118 -111 -117
-118 -111 -116
-118 -111 -115
-118 -111 -114
-118 -111 -113
-118 -111 -112
-118 -111 -111
-117 -128 -128
-117 -128 -127
-117 -128 -126
-117 -128 -125
-117 -128 -124
-117 -128 -123
-117 -128 -122
-117 -128 -121
-117 -128 -120
-117 -128 -119
-117 -128 -118
-117 -128 -117
-117 -128 -116
-117 -128 -115
-117 -128 -114
-117 -128 -113
-117 -128 -112
-117 -128 -111
-117 -127 -128
-117 -127 -127
-117 -127 -126
-117 -127 -125
-117 -127 -124
-117 -127 -123
-117 -127 -122
-117 -127 -121
-117 -127 -120
-117 -127 -119
-117 -127 -118
-117 -127 -117
-117 -127 -116
-117 -127 -115
-117 -127 -114
-117 -127 -113
-117 -127 -112
-117 -127 -111
-117 -126 -128
-117 -126 -127
-117 -126 -126
-117 -126 -125
-117 -126 -124
-117 -126 -123
-117 -126 -122
-117 -126 -121
-117 -126 -120
-117 -126 -119
-117 -126 -118
-117 -126 -117
-117 -126 -116
-117 -126 -115
-117 -126 -114
-117 -126 -113
-117 -126 -112
-117 -126 -111
-117 -125 -128
-117 -125 -127
-117 -125 -126
-117 -125 -125
-117 -125 -124
-117 -125 -123
-117 -125 -122
-117 -125 -121
-117 -125 -120
-117 -125 -119
-117 -125 -118
-117 -125 -117
-117 -125 -116
-117 -125 -115
-117 -125 -114
-117 -125 -113
-117 -125 -112
-117 -125 -111
-117 -124 -128
-117 -124 -127
-117 -124 -126
-117 -124 -125
-117 -124 -124
-117 -124 -123
-117 -124 -122
-117 -124 -121
-117 -124 -120
-117 -124 -119
-117 -124 -118
-117 -124 -117
-117 -124 -116
-117 -124 -115
-117 -124 -114
-117 -124 -113
-117 -124 -112
-117 -124 -111
-117 -123 -128
-117 -123 -127
-117 -123 -126
-117 -123 -125
-117 -123 -124
-117 -123 -123
-117 -123 -122
-117 -123 -121
-117 -123 -120
-117 -123 -119
-117 -123 -118
-117 -123 -117
-117 -123 -116
-117 -123 -115
-117 -123 -114
-117 -123 -113
-117 -123 -112
-117 -123 -111
-117 -122 -128
-117 -122 -127
-117 -122 -126
-117 -122 -125
-117 -122 -124
-117 -122 -123
-117 -122 -122
-117 -122 -121
-117 -122 -120
-117 -122 -119
-117 -122 -118
-117 -122 -117
-117 -122 -116
-117 -122 -115
-117 -122 -114
-117 -122 -113
-117 -122 -112
-117 -122 -111
-117 -121 -128
-117 -121 -127
-117 -121 -126
-117 -121 -125
-117 -121 -124
-117 -121 -123
-117 -121 -122
-117 -121 -121
-117 -121 -120
-117 -121 -119
-117 -121 -118
-117 -121 -117
-117 -121 -116
-117 -121 -115
-117 -121 -114
-117 -121 -113
-117 -121 -112
-117 -121 -111
-117 -120 -128
-117 -120 -127
-117 -120 -126
-117 -120 -125
-117 -120 -124
-117 -120 -123
-117 -120 -122
-117 -120 -121
-117 -120 -120
-117 -120 -119
-117 -120 -118
-117 -120 -117
-117 -120 -116
-117 -120 -115
-117 -120 -114
-117 -120 -113
-117 -120 -112
-117 -120 -111
-117 -119 -128
-117 -119 -127
-117 -119 -126
-117 -119 -125
-117 -119 -124
-117 -119 -123
-117 -119 -122
-117 -119 -121
-117 -119 -120
-117 -119 -119
-117 -119 -118
-117 -119 -117
-117 -119 -116
-117 -119 -115
-117 -119 -114
-117 -119 -113
-117 -119 -112
-117 -119 -111
-117 -118 -128
-117 -118 -127
-117 -118 -126
-117 -118 -125
-117 -118 -124
-117 -118 -123
-117 -118 -122
-117 -118 -121
-117 -118 -120
-117 -118 -119
-117 -118 -118
-117 -118 -117
-117 -118 -116
-117 -118 -115
-117 -118 -114
-117 -118 -113
-117 -118 -112
-117 -118 -111
-117 -117 -128
-117 -117 -127
-117 -117 -126
-117 -117 -125
-117 -117 -124
-117 -117 -123
-117 -117 -122
-117 -117 -121
-117 -117 -120
-117 -117 -119
-117 -117 -118
-117 -117 -117
-117 -117 -116
-117 -117 -115
-117 -117 -114
-117 -117 -113
-117 -117 -112
-117 -117 -111
-117 -116 -128
-117 -116 -127
-117 -116 -126
-117 -116 -125
-117 -116 -124
-117 -116 -123
-117 -116 -122
-117 -116 -121
-117 -116 -120
-117 -116 -119
-117 -116 -118
-117 -116 -117
-117 -116 -116
-117 -116 -115
-117 -116 -114
-117 -116 -113
-117 -116 -112
-117 -116 -111
-117 -115 -128
-117 -115 -127
-117 -115 -126
-117 -115 -125
-117 -115 -124
-117 -115 -123
-117 -115 -122
-117 -115 -121
-117 -115 -120
-117 -115 -119
-117 -115 -118
-117 -115 -117
-117 -115 -116
-117 -115 -115
-117 -115 -114
-117 -115 -113
-117 -115 -112
-117 -115 -111
-117 -114 -128
-117 -114 -127
-117 -114 -126
-117 -114 -125
-117 -114 -124
-117 -114 -123
-117 -114 -122
-117 -114 -121
-117 -114 -120
-117 -114 -119
-117 -114 -118
-117 -114 -117
-117 -114 -116
-117 -114 -115
-117 -114 -114
-117 -114 -113
-117 -114 -112
-117 -114 -111
-117 -113 -128
-117 -113 -127
-117 -113 -126
-117 -113 -125
-117 -113 -124
-117 -113 -123
-117 -113 -122
-117 -113 -121
-117 -113 -120
-117 -113 -119
-117 -113 -118
-117 -113 -117
-117 -113 -116
-117 -113 -115
-117 -113 -114
-117 -113 -113
-117 -113 -112
-117 -113 -111
-117 -112 -128
-117 -112 -127
-117 -112 -126
-117 -112 -125
-117 -112 -124
-117 -112 -123
-117 -112 -122
-117 -112 -121
-117 -112 -120
-117 -112 -119
-117 -112 -118
-117 -112 -117
-117 -112 -116
-117 -112 -115
-117 -112 -114
-117 -112 -113
-117 -112 -112
-117 -112 -111
-117 -111 -128
-117 -111 -127
-117 -111 -126
-117 -111 -125
-117 -111 -124
-117 -111 -123
-117 -111 -122
-117 -111 -121
-117 -111 -120
-117 -111 -119
-117 -111 -118
-117 -111 -117
-117 -111 -116
-117 -111 -115
-117 -111 -114
-117 -111 -113
-117 -111 -112
-117 -111 -111
-116 -128 -128
-116 -128 -127
-116 -128 -126
-116 -128 -125
-116 -128 -124
-116 -128 -123
-116 -128 -122
-116 -128 -121
-116 -128 -120
-116 -128 -119
-116 -128 -118
-116 -128 -117
-116 -128 -116
-116 -128 -115
-116 -128 -114
-116 -128 -113
-116 -128 -112
-116 -128 -111
-116 -127 -128
-116 -127 -127
-116 -127 -126
-116 -127 -125
-116 -127 -124
-116 -127 -123
-116 -127 -122
-116 -127 -121
-116 -127 -120
-116 -127 -119
-116 -127 -118
-116 -127 -117
-116 -127 -116
-116 -127 -115
-116 -127 -114
-116 -127 -113
-116 -127 -112
-116 -127 -111
-116 -126 -128
-116 -126 -127
-116 -126 -126
-116 -126 -125
-116 -126 -124
-116 -126 -123
-116 -126 -122
-116 -126 -121
-116 -126 -120
-116 -126 -119
-116 -126 -118
-116 -126 -117
-116 -126 -116
-116 -126 -115
-116 -126 -114
-116 -126 -113
-116 -126 -112
-116 -126 -111
-116 -125 -128
-116 -125 -127
-116 -125 -126
-116 -125 -125
-116 -125 -124
-116 -125 -123
-116 -125 -122
-116 -125 -121
-116 -125 -120
-116 -125 -119
-116 -125 -118
-116 -125 -117
-116 -125 -116
-116 -125 -115
-116 -125 -114
-116 -125 -113
-116 -125 -112
-116 -125 -111
-116 -124 -128
-116 -124 -127
-116 -124 -126
-116 -124 -125
-116 -124 -124
-116 -124 -123
-116 -124 -122
-116 -124 -121
-116 -124 -120
-116 -124 -119
-116 -124 -118
-116 -124 -117
-116 -124 -116
-116 -124 -115
-116 -124 -114
-116 -124 -113
-116 -124 -112
-116 -124 -111
-116 -123 -128
-116 -123 -127
-116 -123 -126
-116 -123 -125
-116 -123 -124
-116 -123 -123
-116 -123 -122
-116 -123 -121
-116 -123 -120
-116 -123 -119
-116 -123 -118
-116 -123 -117
-116 -123 -116
-116 -123 -115
-116 -123 -114
-116 -123 -113
-116 -123 -112
-116 -123 -111
-116 -122 -128
-116 -122 -127
-116 -122 -126
-116 -122 -125
-116 -122 -124
-116 -122 -123
-116 -122 -122
-116 -122 -121
-116 -122 -120
-116 -122 -119
-116 -122 -118
-116 -122 -117
-116 -122 -116
-116 -122 -115
-116 -122 -114
-116 -122 -113
-116 -122 -112
-116 -122 -111
-116 -121 -128
-116 -121 -127
-116 -121 -126
-116 -121 -125
-116 -121 -124
-116 -121 -123
-116 -121 -122
-116 -121 -121
-116 -121 -120
-116 -121 -119
-116 -121 -118
-116 -121 -117
-116 -121 -116
-116 -121 -115
-116 -121 -114
-116 -121 -113
-116 -121 -112
-116 -121 -111
-116 -120 -128
-116 -120 -127
-116 -120 -126
-116 -120 -125
-116 -120 -124
-116 -120 -123
-116 -120 -122
-116 -120 -121
-116 -120 -120
-116 -120 -119
-116 -120 -118
-116 -120 -117
-116 -120 -116
-116 -120 -115
-116 -120 -114
-116 -120 -113
-116 -120 -112
-116 -120 -111
-116 -119 -128
-116 -119 -127
-116 -119 -126
-116 -119 -125
-116 -119 -124
-116 -119 -123
-116 -119 -122
-116 -119 -121
-116 -119 -120
-116 -119 -119
-116 -119 -118
-116 -119 -117
-116 -119 -116
-116 -119 -115
-116 -119 -114
-116 -119 -113
-116 -119 -112
-116 -119 -111
-116 -118 -128
-116 -118 -127
-116 -118 -126
-116 -118 -125
-116 -118 -124
-116 -118 -123
-116 -118 -122
-116 -118 -121
-116 -118 -120
-116 -118 -119
-116 -118 -118
-116 -118 -117
-116 -118 -116
-116 -118 -115
-116 -118 -114
-116 -118 -113
-116 -118 -112
-116 -118 -111
-116 -117 -128
-116 -117 -127
-116 -117 -126
-116 -117 -125
-116 -117 -124
-116 -117 -123
-116 -117 -122
-116 -117 -121
-116 -117 -120
-116 -117 -119
-116 -117 -118
-116 -117 -117
-116 -117 -116
-116 -117 -115
-116 -117 -114
-116 -117 -113
-116 -117 -112
-116 -117 -111
-116 -116 -128
-116 -116 -127
-116 -116 -126
-116 -116 -125
-116 -116 -124
-116 -116 -123
-116 -116 -122
-116 -116 -121
-116 -116 -120
-116 -116 -119
-116 -116 -118
-116 -116 -117
-116 -116 -116
-116 -116 -115
-116 -116 -114
-116 -116 -113
-116 -116 -112
-116 -116 -111
-116 -115 -128
-116 -115 -127
-116 -115 -126
-116 -115 -125
-116 -115 -124
-116 -115 -123
-116 -115 -122
-116 -115 -121
-116 -115 -120
-116 -115 -119
-116 -115 -118
-116 -115 -117
-116 -115 -116
-116 -115 -115
-116 -115 -114
-116 -115 -113
-116 -115 -112
-116 -115 -111
-116 -114 -128
-116 -114 -127
-116 -114 -126
-116 -114 -125
-116 -114 -124
-116 -114 -123
-116 -114 -122
-116 -114 -121
-116 -114 -120
-116 -114 -119
-116 -114 -118
-116 -114 -117
-116 -114 -116
-116 -114 -115
-116 -114 -114
-116 -114 -113
-116 -114 -112
-116 -114 -111
-116 -113 -128
-116 -113 -127
-116 -113 -126
-116 -113 -125
-116 -113 -124
-116 -113 -123
-116 -113 -122
-116 -113 -121
-116 -113 -120
-116 -113 -119
-116 -113 -118
-116 -113 -117
-116 -113 -116
-116 -113 -115
-116 -113 -114
-116 -113 -113
-116 -113 -112
-116 -113 -111
-116 -112 -128
-116 -112 -127
-116 -112 -126
-116 -112 -125
-116 -112 -124
-116 -112 -123
-116 -112 -122
-116 -112 -121
-116 -112 -120
-116 -112 -119
-116 -112 -118
-116 -112 -117
-116 -112 -116
-116 -112 -115
-116 -112 -114
-116 -112 -113
-116 -112 -112
-116 -112 -111
-116 -111 -128
-116 -111 -127
-116 -111 -126
-116 -111 -125
-116 -111 -124
-116 -111 -123
-116 -111 -122
-116 -111 -121
-116 -111 -120
-116 -111 -119
-116 -111 -118
-116 -111 -117
-116 -111 -116
-116 -111 -115
-116 -111 -114
-116 -111 -113
-116 -111 -112
-116 -111 -111
-115 -128 -128
-115 -128 -127
-115 -128 -126
-115 -128 -125
-115 -128 -124
-115 -128 -123
-115 -128 -122
-115 -128 -121
-115 -128 -120
-115 -128 -119
-115 -128 -118
-115 -128 -117
-115 -128 -116
-115 -128 -115
-115 -128 -114
-115 -128 -113
-115 -128 -112
-115 -128 -111
-115 -127 -128
-115 -127 -127
-115 -127 -126
-115 -127 -125
-115 -127 -124
-115 -127 -123
-115 -127 -122
-115 -127 -121
-115 -127 -120
-115 -127 -119
-115 -127 -118
-115 -127 -117
-115 -127 -116
-115 -127 -115
-115 -127 -114
-115 -127 -113
-115 -127 -112
-115 -127 -111
-115 -126 -128
-115 -126 -127
-115 -126 -126
-115 -126 -125
-115 -126 -124
-115 -126 -123
-115 -126 -122
-115 -126 -121
-115 -126 -120
-115 -126 -119
-115 -126 -118
-115 -126 -117
-115 -126 -116
-115 -126 -115
-115 -126 -114
-115 -126 -113
-115 -126 -112
-115 -126 -111
-115 -125 -128
-115 -125 -127
-115 -125 -126
-115 -125 -125
-115 -125 -124
-115 -125 -123
-115 -125 -122
-115 -125 -121
-115 -125 -120
-115 -125 -119
-115 -125 -118
-115 -125 -117
-115 -125 -116
-115 -125 -115
-115 -125 -114
-115 -125 -113
-115 -125 -112
-115 -125 -111
-115 -124 -128
-115 -124 -127
-115 -124 -126
-115 -124 -125
-115 -124 -124
-115 -124 -123
-115 -124 -122
-115 -124 -121
-115 -124 -120
-115 -124 -119
-115 -124 -118
-115 -124 -117
-115 -124 -116
-115 -124 -115
-115 -124 -114
-115 -124 -113
-115 -124 -112
-115 -124 -111
-115 -123 -128
-115 -123 -127
-115 -123 -126
-115 -123 -125
-115 -123 -124
-115 -123 -123
-115 -123 -122
-115 -123 -121
-115 -123 -120
-115 -123 -119
-115 -123 -118
-115 -123 -117
-115 -123 -116
-115 -123 -115
-115 -123 -114
-115 -123 -113
-115 -123 -112
-115 -123 -111
-115 -122 -128
-115 -122 -127
-115 -122 -126
-115 -122 -125
-115 -122 -124
-115 -122 -123
-115 -122 -122
-115 -122 -121
-115 -122 -120
-115 -122 -119
-115 -122 -118
-115 -122 -117
-115 -122 -116
-115 -122 -115
-115 -122 -114
-115 -122 -113
-115 -122 -112
-115 -122 -111
-115 -121 -128
-115 -121 -127
-115 -121 -126
-115 -121 -125
-115 -121 -124
-115 -121 -123
-115 -121 -122
-115 -121 -121
-115 -121 -120
-115 -121 -119
-115 -121 -118
-115 -121 -117
-115 -121 -116
-115 -121 -115
-115 -121 -114
-115 -121 -113
-115 -121 -112
-115 -121 -111
-115 -120 -128
-115 -120 -127
-115 -120 -126
-115 -120 -125
-115 -120 -124
-115 -120 -123
-115 -120 -122
-115 -120 -121
-115 -120 -120
-115 -120 -119
-115 -120 -118
-115 -120 -117
-115 -120 -116
-115 -120 -115
-115 -120 -114
-115 -120 -113
-115 -120 -112
-115 -120 -111
-115 -119 -128
-115 -119 -127
-115 -119 -126
-115 -119 -125
-115 -119 -124
-115 -119 -123
-115 -119 -122
-115 -119 -121
-115 -119 -120
-115 -119 -119
-115 -119 -118
-115 -119 -117
-115 -119 -116
-115 -119 -115
-115 -119 -114
-115 -119 -113
-115 -119 -112
-115 -119 -111
-115 -118 -128
-115 -118 -127
-115 -118 -126
-115 -118 -125
-115 -118 -124
-115 -118 -123
-115 -118 -122
-115 -118 -121
-115 -118 -120
-115 -118 -119
-115 -118 -118
-115 -118 -117
-115 -118 -116
-115 -118 -115
-115 -118 -114
-115 -118 -113
-115 -118 -112
-115 -118 -111
-115 -117 -128
-115 -117 -127
-115 -117 -126
-115 -117 -125
-115 -117 -124
-115 -117 -123
-115 -117 -122
-115 -117 -121
-115 -117 -120
-115 -117 -119
-115 -117 -118
-115 -117 -117
-115 -117 -116
-115 -117 -115
-115 -117 -114
-115 -117 -113
-115 -117 -112
-115 -117 -111
-115 -116 -128
-115 -116 -127
-115 -116 -126
-115 -116 -125
-115 -116 -124
-115 -116 -123
-115 -116 -122
-115 -116 -121
-115 -116 -120
-115 -116 -119
-115 -116 -118
-115 -116 -117
-115 -116 -116
-115 -116 -115
-115 -116 -114
-115 -116 -113
-115 -116 -112
-115 -116 -111
-115 -115 -128
-115 -115 -127
-115 -115 -126
-115 -115 -125
-115 -115 -124
-115 -115 -123
-115 -115 -122
-115 -115 -121
-115 -115 -120
-115 -115 -119
-115 -115 -118
-115 -115 -117
-115 -115 -116
-115 -115 -115
-115 -115 -114
-115 -115 -113
-115 -115 -112
-115 -115 -111
-115 -114 -128
-115 -114 -127
-115 -114 -126
-115 -114 -125
-115 -114 -124
-115 -114 -123
-115 -114 -122
-115 -114 -121
-115 -114 -120
-115 -114 -119
-115 -114 -118
-115 -114 -117
-115 -114 -116
-115 -114 -115
-115 -114 -114
-115 -114 -113
-115 -114 -112
-115 -114 -111
-115 -113 -128
-115 -113 -127
-115 -113 -126
-115 -113 -125
-115 -113 -124
-115 -113 -123
-115 -113 -122
-115 -113 -121
-115 -113 -120
-115 -113 -119
-115 -113 -118
-115 -113 -117
-115 -113 -116
-115 -113 -115
-115 -113 -114
-115 -113 -113
-115 -113 -112
-115 -113 -111
-115 -112 -128
-115 -112 -127
-115 -112 -126
-115 -112 -125
-115 -112 -124
-115 -112 -123
-115 -112 -122
-115 -112 -121
-115 -112 -120
-115 -112 -119
-115 -112 -118
-115 -112 -117
-115 -112 -116
-115 -112 -115
-115 -112 -114
-115 -112 -113
-115 -112 -112
-115 -112 -111
-115 -111 -128
-115 -111 -127
-115 -111 -126
-115 -111 -125
-115 -111 -124
-115 -111 -123
-115 -111 -122
-115 -111 -121
-115 -111 -120
-115 -111 -119
-115 -111 -118
-115 -111 -117
-115 -111 -116
-115 -111 -115
-115 -111 -114
-115 -111 -113
-115 -111 -112
-115 -111 -111
-114 -128 -128
-114 -128 -127
-114 -128 -126
-114 -128 -125
-114 -128 -124
-114 -128 -123
-114 -128 -122
-114 -128 -121
-114 -128 -120
-114 -128 -119
-114 -128 -118
-114 -128 -117
-114 -128 -116
-114 -128 -115
-114 -128 -114
-114 -128 -113
-114 -128 -112
-114 -128 -111
-114 -127 -128
-114 -127 -127
-114 -127 -126
-114 -127 -125
-114 -127 -124
-114 -127 -123
-114 -127 -122
-114 -127 -121
-114 -127 -120
-114 -127 -119
-114 -127 -118
-114 -127 -117
-114 -127 -116
-114 -127 -115
-114 -127 -114
-114 -127 -113
-114 -127 -112
-114 -127 -111
-114 -126 -128
-114 -126 -127
-114 -126 -126
-114 -126 -125
-114 -126 -124
-114 -126 -123
-114 -126 -122
-114 -126 -121
-114 -126 -120
-114 -126 -119
-114 -126 -118
-114 -126 -117
-114 -126 -116
-114 -126 -115
-114 -126 -114
-114 -126 -113
-114 -126 -112
-114 -126 -111
-114 -125 -128
-114 -125 -127
-114 -125 -126
-114 -125 -125
-114 -125 -124
-114 -125 -123
-114 -125 -122
-114 -125 -121
-114 -125 -120
-114 -125 -119
-114 -125 -118
-114 -125 -117
-114 -125 -116
-114 -125 -115
-114 -125 -114
-114 -125 -113
-114 -125 -112
-114 -125 -111
-114 -124 -128
-114 -124 -127
-114 -124 -126
-114 -124 -125
-114 -124 -124
-114 -124 -123
-114 -124 -122
-114 -124 -121
-114 -124 -120
-114 -124 -119
-114 -124 -118
-114 -124 -117
-114 -124 -116
-114 -124 -115
-114 -124 -114
-114 -124 -113
-114 -124 -112
-114 -124 -111
-114 -123 -128
-114 -123 -127
-114 -123 -126
-114 -123 -125
-114 -123 -124
-114 -123 -123
-114 -123 -122
-114 -123 -121
-114 -123 -120
-114 -123 -119
-114 -123 -118
-114 -123 -117
-114 -123 -116
-114 -123 -115
-114 -123 -114
-114 -123 -113
-114 -123 -112
-114 -123 -111
-114 -122 -128
-114 -122 -127
-114 -122 -126
-114 -122 -125
-114 -122 -124
-114 -122 -123
-114 -122 -122
-114 -122 -121
-114 -122 -120
-114 -122 -119
-114 -122 -118
-114 -122 -117
-114 -122 -116
-114 -122 -115
-114 -122 -114
-114 -122 -113
-114 -122 -112
-114 -122 -111
-114 -121 -128
-114 -121 -127
-114 -121 -126
-114 -121 -125
-114 -121 -124
-114 -121 -123
-114 -121 -122
-114 -121 -121
-114 -121 -120
-114 -121 -119
-114 -121 -118
-114 -121 -117
-114 -121 -116
-114 -121 -115
-114 -121 -114
-114 -121 -113
-114 -121 -112
-114 -121 -111
-114 -120 -128
-114 -120 -127
-114 -120 -126
-114 -120 -125
-114 -120 -124
-114 -120 -123
-114 -120 -122
-114 -120 -121
-114 -120 -120
-114 -120 -119
-114 -120 -118
-114 -120 -117
-114 -120 -116
-114 -120 -115
-114 -120 -114
-114 -120 -113
-114 -120 -112
-114 -120 -111
-114 -119 -128
-114 -119 -127
-114 -119 -126
-114 -119 -125
-114 -119 -124
-114 -119 -123
-114 -119 -122
-114 -119 -121
-114 -119 -120
-114 -119 -119
-114 -119 -118
-114 -119 -117
-114 -119 -116
-114 -119 -115
-114 -119 -114
-114 -119 -113
-114 -119 -112
-114 -119 -111
-114 -118 -128
-114 -118 -127
-114 -118 -126
-114 -118 -125
-114 -118 -124
-114 -118 -123
-114 -118 -122
-114 -118 -121
-114 -118 -120
-114 -118 -119
-114 -118 -118
-114 -118 -117
-114 -118 -116
-114 -118 -115
-114 -118 -114
-114 -118 -113
-114 -118 -112
-114 -118 -111
-114 -117 -128
-114 -117 -127
-114 -117 -126
-114 -117 -125
-114 -117 -124
-114 -117 -123
-114 -117 -122
-114 -117 -121
-114 -117 -120
-114 -117 -119
-114 -117 -118
-114 -117 -117
-114 -117 -116
-114 -117 -115
-114 -117 -114
-114 -117 -113
-114 -117 -112
-114 -117 -111
-114 -116 -128
-114 -116 -127
-114 -116 -126
-114 -116 -125
-114 -116 -124
-114 -116 -123
-114 -116 -122
-114 -116 -121
-114 -116 -120
-114 -116 -119
-114 -116 -118
-114 -116 -117
-114 -116 -116
-114 -116 -115
-114 -116 -114
-114 -116 -113
-114 -116 -112
-114 -116 -111
-114 -115 -128
-114 -115 -127
-114 -115 -126
-114 -115 -125
-114 -115 -124
-114 -115 -123
-114 -115 -122
-114 -115 -121
-114 -115 -120
-114 -115 -119
-114 -115 -118
-114 -115 -117
-114 -115 -116
-114 -115 -115
-114 -115 -114
-114 -115 -113
-114 -115 -112
-114 -115 -111
-114 -114 -128
-114 -114 -127
-114 -114 -126
-114 -114 -125
-114 -114 -124
-114 -114 -123
-114 -114 -122
-114 -114 -121
-114 -114 -120
-114 -114 -119
-114 -114 -118
-114 -114 -117
-114 -114 -116
-114 -114 -115
-114 -114 -114
-114 -114 -113
-114 -114 -112
-114 -114 -111
-114 -113 -128
-114 -113 -127
-114 -113 -126
-114 -113 -125
-114 -113 -124
-114 -113 -123
-114 -113 -122
-114 -113 -121
-114 -113 -120
-114 -113 -119
-114 -113 -118
-114 -113 -117
-114 -113 -116
-114 -113 -115
-114 -113 -114
-114 -113 -113
-114 -113 -112
-114 -113 -111
-114 -112 -128
-114 -112 -127
-114 -112 -126
-114 -112 -125
-114 -112 -124
-114 -112 -123
-114 -112 -122
-114 -112 -121
-114 -112 -120
-114 -112 -119
-114 -112 -118
-114 -112 -117
-114 -112 -116
-114 -112 -115
-114 -112 -114
-114 -112 -113
-114 -112 -112
-114 -112 -111
-114 -111 -128
-114 -111 -127
-114 -111 -126
-114 -111 -125
-114 -111 -124
-114 -111 -123
-114 -111 -122
-114 -111 -121
-114 -111 -120
-114 -111 -119
-114 -111 -118
-114 -111 -117
-114 -111 -116
-114 -111 -115
-114 -111 -114
-114 -111 -113
-114 -111 -112
-114 -111 -111
-113 -128 -128
-113 -128 -127
-113 -128 -126
-113 -128 -125
-113 -128 -124
-113 -128 -123
-113 -128 -122
-113 -128 -121
-113 -128 -120
-113 -128 -119
-113 -128 -118
-113 -128 -117
-113 -128 -116
-113 -128 -115
-113 -128 -114
-113 -128 -113
-113 -128 -112
-113 -128 -111
-113 -127 -128
-113 -127 -127
-113 -127 -126
-113 -127 -125
-113 -127 -124
-113 -127 -123
-113 -127 -122
-113 -127 -121
-113 -127 -120
-113 -127 -119
-113 -127 -118
-113 -127 -117
-113 -127 -116
-113 -127 -115
-113 -127 -114
-113 -127 -113
-113 -127 -112
-113 -127 -111
-113 -126 -128
-113 -126 -127
-113 -126 -126
-113 -126 -125
-113 -126 -124
-113 -126 -123
-113 -126 -122
-113 -126 -121
-113 -126 -120
-113 -126 -119
-113 -126 -118
-113 -126 -117
-113 -126 -116
-113 -126 -115
-113 -126 -114
-113 -126 -113
-113 -126 -112
-113 -126 -111
-113 -125 -128
-113 -125 -127
-113 -125 -126
-113 -125 -125
-113 -125 -124
-113 -125 -123
-113 -125 -122
-113 -125 -121
-113 -125 -120
-113 -125 -119
-113 -125 -118
-113 -125 -117
-113 -125 -116
-113 -125 -115
-113 -125 -114
-113 -125 -113
-113 -125 -112
-113 -125 -111
-113 -124 -128
-113 -124 -127
-113 -124 -126
-113 -124 -125
-113 -124 -124
-113 -124 -123
-113 -124 -122
-113 -124 -121
-113 -124 -120
-113 -124 -119
-113 -124 -118
-113 -124 -117
-113 -124 -116
-113 -124 -115
-113 -124 -114
-113 -124 -113
-113 -124 -112
-113 -124 -111
-113 -123 -128
-113 -123 -127
-113 -123 -126
-113 -123 -125
-113 -123 -124
-113 -123 -123
-113 -123 -122
-113 -123 -121
-113 -123 -120
-113 -123 -119
-113 -123 -118
-113 -123 -117
-113 -123 -116
-113 -123 -115
-113 -123 -114
-113 -123 -113
-113 -123 -112
-113 -123 -111
-113 -122 -128
-113 -122 -127
-113 -122 -126
-113 -122 -125
-113 -122 -124
-113 -122 -123
-113 -122 -122
-113 -122 -121
-113 -122 -120
-113 -122 -119
-113 -122 -118
-113 -122 -117
-113 -122 -116
-113 -122 -115
-113 -122 -114
-113 -122 -113
-113 -122 -112
-113 -122 -111
-113 -121 -128
-113 -121 -127
-113 -121 -126
-113 -121 -125
-113 -121 -124
-113 -121 -123
-113 -121 -122
-113 -121 -121
-113 -121 -120
-113 -121 -119
-113 -121 -118
-113 -121 -117
-113 -121 -116
-113 -121 -115
-113 -121 -114
-113 -121 -113
-113 -121 -112
-113 -121 -111
-113 -120 -128
-113 -120 -127
-113 -120 -126
-113 -120 -125
-113 -120 -124
-113 -120 -123
-113 -120 -122
-113 -120 -121
-113 -120 -120
-113 -120 -119
-113 -120 -118
-113 -120 -117
-113 -120 -116
-113 -120 -115
-113 -120 -114
-113 -120 -113
-113 -120 -112
-113 -120 -111
-113 -119 -128
-113 -119 -127
-113 -119 -126
-113 -119 -125
-113 -119 -124
-113 -119 -123
-113 -119 -122
-113 -119 -121
-113 -119 -120
-113 -119 -119
-113 -119 -118
-113 -119 -117
-113 -119 -116
-113 -119 -115
-113 -119 -114
-113 -119 -113
-113 -119 -112
-113 -119 -111
-113 -118 -128
-113 -118 -127
-113 -118 -126
-113 -118 -125
-113 -118 -124
-113 -118 -123
-113 -118 -122
-113 -118 -121
-113 -118 -120
-113 -118 -119
-113 -118 -118
-113 -118 -117
-113 -118 -116
-113 -118 -115
-113 -118 -114
-113 -118 -113
-113 -118 -112
-113 -118 -111
-113 -117 -128
-113 -117 -127
-113 -117 -126
-113 -117 -125
-113 -117 -124
-113 -117 -123
-113 -117 -122
-113 -117 -121
-113 -117 -120
-113 -117 -119
-113 -117 -118
-113 -117 -117
-113 -117 -116
-113 -117 -115
-113 -117 -114
-113 -117 -113
-113 -117 -112
-113 -117 -111
-113 -116 -128
-113 -116 -127
-113 -116 -126
-113 -116 -125
-113 -116 -124
-113 -116 -123
-113 -116 -122
-113 -116 -121
-113 -116 -120
-113 -116 -119
-113 -116 -118
-113 -116 -117
-113 -116 -116
-113 -116 -115
-113 -116 -114
-113 -116 -113
-113 -116 -112
-113 -116 -111
-113 -115 -128
-113 -115 -127
-113 -115 -126
-113 -115 -125
-113 -115 -124
-113 -115 -123
-113 -115 -122
-113 -115 -121
-113 -115 -120
-113 -115 -119
-113 -115 -118
-113 -115 -117
-113 -115 -116
-113 -115 -115
-113 -115 -114
-113 -115 -113
-113 -115 -112
-113 -115 -111
-113 -114 -128
-113 -114 -127
-113 -114 -126
-113 -114 -125
-113 -114 -124
-113 -114 -123
-113 -114 -122
-113 -114 -121
-113 -114 -120
-113 -114 -119
-113 -114 -118
-113 -114 -117
-113 -114 -116
-113 -114 -115
-113 -114 -114
-113 -114 -113
-113 -114 -112
-113 -114 -111
-113 -113 -128
-113 -113 -127
-113 -113 -126
-113 -113 -125
-113 -113 -124
-113 -113 -123
-113 -113 -122
-113 -113 -121
-113 -113 -120
-113 -113 -119
-113 -113 -118
-113 -113 -117
-113 -113 -116
-113 -113 -115
-113 -113 -114
-113 -113 -113
-113 -113 -112
-113 -113 -111
-113 -112 -128
-113 -112 -127
-113 -112 -126
-113 -112 -125
-113 -112 -124
-113 -112 -123
-113 -112 -122
-113 -112 -121
-113 -112 -120
-113 -112 -119
-113 -112 -118
-113 -112 -117
-113 -112 -116
-113 -112 -115
-113 -112 -114
-113 -112 -113
-113 -112 -112
-113 -112 -111
-113 -111 -128
-113 -111 -127
-113 -111 -126
-113 -111 -125
-113 -111 -124
-113 -111 -123
-113 -111 -122
-113 -111 -121
-113 -111 -120
-113 -111 -119
-113 -111 -118
-113 -111 -117
-113 -111 -116
-113 -111 -115
-113 -111 -114
-113 -111 -113
-113 -111 -112
-113 -111 -111
-112 -128 -128
-112 -128 -127
-112 -128 -126
-112 -128 -125
-112 -128 -124
-112 -128 -123
-112 -128 -122
-112 -128 -121
-112 -128 -120
-112 -128 -119
-112 -128 -118
-112 -128 -117
-112 -128 -116
-112 -128 -115
-112 -128 -114
-112 -128 -113
-112 -128 -112
-112 -128 -111
-112 -127 -128
-112 -127 -127
-112 -127 -126
-112 -127 -125
-112 -127 -124
-112 -127 -123
-112 -127 -122
-112 -127 -121
-112 -127 -120
-112 -127 -119
-112 -127 -118
-112 -127 -117
-112 -127 -116
-112 -127 -115
-112 -127 -114
-112 -127 -113
-112 -127 -112
-112 -127 -111
-112 -126 -128
-112 -126 -127
-112 -126 -126
-112 -126 -125
-112 -126 -124
-112 -126 -123
-112 -126 -122
-112 -126 -121
-112 -126 -120
-112 -126 -119
-112 -126 -118
-112 -126 -117
-112 -126 -116
-112 -126 -115
-112 -126 -114
-112 -126 -113
-112 -126 -112
-112 -126 -111
-112 -125 -128
-112 -125 -127
-112 -125 -126
-112 -125 -125
-112 -125 -124
-112 -125 -123
-112 -125 -122
-112 -125 -121
-112 -125 -120
-112 -125 -119
-112 -125 -118
-112 -125 -117
-112 -125 -116
-112 -125 -115
-112 -125 -114
-112 -125 -113
-112 -125 -112
-112 -125 -111
-112 -124 -128
-112 -124 -127
-112 -124 -126
-112 -124 -125
-112 -124 -124
-112 -124 -123
-112 -124 -122
-112 -124 -121
-112 -124 -120
-112 -124 -119
-112 -124 -118
-112 -124 -117
-112 -124 -116
-112 -124 -115
-112 -124 -114
-112 -124 -113
-112 -124 -112
-112 -124 -111
-112 -123 -128
-112 -123 -127
-112 -123 -126
-112 -123 -125
-112 -123 -124
-112 -123 -123
-112 -123 -122
-112 -123 -121
-112 -123 -120
-112 -123 -119
-112 -123 -118
-112 -123 -117
-112 -123 -116
-112 -123 -115
-112 -123 -114
-112 -123 -113
-112 -123 -112
-112 -123 -111
-112 -122 -128
-112 -122 -127
-112 -122 -126
-112 -122 -125
-112 -122 -124
-112 -122 -123
-112 -122 -122
-112 -122 -121
-112 -122 -120
-112 -122 -119
-112 -122 -118
-112 -122 -117
-112 -122 -116
-112 -122 -115
-112 -122 -114
-112 -122 -113
-112 -122 -112
-112 -122 -111
-112 -121 -128
-112 -121 -127
-112 -121 -126
-112 -121 -125
-112 -121 -124
-112 -121 -123
-112 -121 -122
-112 -121 -121
-112 -121 -120
-112 -121 -119
-112 -121 -118
-112 -121 -117
-112 -121 -116
-112 -121 -115
-112 -121 -114
-112 -121 -113
-112 -121 -112
-112 -121 -111
-112 -120 -128
-112 -120 -127
-112 -120 -126
-112 -120 -125
-112 -120 -124
-112 -120 -123
-112 -120 -122
-112 -120 -121
-112 -120 -120
-112 -120 -119
-112 -120 -118
-112 -120 -117
-112 -120 -116
-112 -120 -115
-112 -120 -114
-112 -120 -113
-112 -120 -112
-112 -120 -111
-112 -119 -128
-112 -119 -127
-112 -119 -126
-112 -119 -125
-112 -119 -124
-112 -119 -123
-112 -119 -122
-112 -119 -121
-112 -119 -120
-112 -119 -119
-112 -119 -118
-112 -119 -117
-112 -119 -116
-112 -119 -115
-112 -119 -114
-112 -119 -113
-112 -119 -112
-112 -119 -111
-112 -118 -128
-112 -118 -127
-112 -118 -126
-112 -118 -125
-112 -118 -124
-112 -118 -123
-112 -118 -122
-112 -118 -121
-112 -118 -120
-112 -118 -119
-112 -118 -118
-112 -118 -117
-112 -118 -116
-112 -118 -115
-112 -118 -114
-112 -118 -113
-112 -118 -112
-112 -118 -111
-112 -117 -128
-112 -117 -127
-112 -117 -126
-112 -117 -125
-112 -117 -124
-112 -117 -123
-112 -117 -122
-112 -117 -121
-112 -117 -120
-112 -117 -119
-112 -117 -118
-112 -117 -117
-112 -117 -116
-112 -117 -115
-112 -117 -114
-112 -117 -113
-112 -117 -112
-112 -117 -111
-112 -116 -128
-112 -116 -127
-112 -116 -126
-112 -116 -125
-112 -116 -124
-112 -116 -123
-112 -116 -122
-112 -116 -121
-112 -116 -120
-112 -116 -119
-112 -116 -118
-112 -116 -117
-112 -116 -116
-112 -116 -115
-112 -116 -114
-112 -116 -113
-112 -116 -112
-112 -116 -111
-112 -115 -128
-112 -115 -127
-112 -115 -126
-112 -115 -125
-112 -115 -124
-112 -115 -123
-112 -115 -122
-112 -115 -121
-112 -115 -120
-112 -115 -119
-112 -115 -118
-112 -115 -117
-112 -115 -116
-112 -115 -115
-112 -115 -114
-112 -115 -113
-112 -115 -112
-112 -115 -111
-112 -114 -128
-112 -114 -127
-112 -114 -126
-112 -114 -125
-112 -114 -124
-112 -114 -123
-112 -114 -122
-112 -114 -121
-112 -114 -120
-112 -114 -119
-112 -114 -118
-112 -114 -117
-112 -114 -116
-112 -114 -115
-112 -114 -114
-112 -114 -113
-112 -114 -112
-112 -114 -111
-112 -113 -128
-112 -113 -127
-112 -113 -126
-112 -113 -125
-112 -113 -124
-112 -113 -123
-112 -113 -122
-112 -113 -121
-112 -113 -120
-112 -113 -119
-112 -113 -118
-112 -113 -117
-112 -113 -116
-112 -113 -115
-112 -113 -114
-112 -113 -113
-112 -113 -112
-112 -113 -111
-112 -112 -128
-112 -112 -127
-112 -112 -126
-112 -112 -125
-112 -112 -124
-112 -112 -123
-112 -112 -122
-112 -112 -121
-112 -112 -120
-112 -112 -119
-112 -112 -118
-112 -112 -117
-112 -112 -116
-112 -112 -115
-112 -112 -114
-112 -112 -113
-112 -112 -112
-112 -112 -111
-112 -111 -128
-112 -111 -127
-112 -111 -126
-112 -111 -125
-112 -111 -124
-112 -111 -123
-112 -111 -122
-112 -111 -121
-112 -111 -120
-112 -111 -119
-112 -111 -118
-112 -111 -117
-112 -111 -116
-112 -111 -115
-112 -111 -114
-112 -111 -113
-112 -111 -112
-112 -111 -111
-111 -128 -128
-111 -128 -127
-111 -128 -126
-111 -128 -125
-111 -128 -124
-111 -128 -123
-111 -128 -122
-111 -128 -121
-111 -128 -120
-111 -128 -119
-111 -128 -118
-111 -128 -117
-111 -128 -116
-111 -128 -115
-111 -128 -114
-111 -128 -113
-111 -128 -112
-111 -128 -111
-111 -127 -128
-111 -127 -127
-111 -127 -126
-111 -127 -125
-111 -127 -124
-111 -127 -123
-111 -127 -122
-111 -127 -121
-111 -127 -120
-111 -127 -119
-111 -127 -118
-111 -127 -117
-111 -127 -116
-111 -127 -115
-111 -127 -114
-111 -127 -113
-111 -127 -112
-111 -127 -111
-111 -126 -128
-111 -126 -127
-111 -126 -126
-111 -126 -125
-111 -126 -124
-111 -126 -123
-111 -126 -122
-111 -126 -121
-111 -126 -120
-111 -126 -119
-111 -126 -118
-111 -126 -117
-111 -126 -116
-111 -126 -115
-111 -126 -114
-111 -126 -113
-111 -126 -112
-111 -126 -111
-111 -125 -128
-111 -125 -127
-111 -125 -126
-111 -125 -125
-111 -125 -124
-111 -125 -123
-111 -125 -122
-111 -125 -121
-111 -125 -120
-111 -125 -119
-111 -125 -118
-111 -125 -117
-111 -125 -116
-111 -125 -115
-111 -125 -114
-111 -125 -113
-111 -125 -112
-111 -125 -111
-111 -124 -128
-111 -124 -127
-111 -124 -126
-111 -124 -125
-111 -124 -124
-111 -124 -123
-111 -124 -122
-111 -124 -121
-111 -124 -120
-111 -124 -119
-111 -124 -118
-111 -124 -117
-111 -124 -116
-111 -124 -115
-111 -124 -114
-111 -124 -113
-111 -124 -112
-111 -124 -111
-111 -123 -128
-111 -123 -127
-111 -123 -126
-111 -123 -125
-111 -123 -124
-111 -123 -123
-111 -123 -122
-111 -123 -121
-111 -123 -120
-111 -123 -119
-111 -123 -118
-111 -123 -117
-111 -123 -116
-111 -123 -115
-111 -123 -114
-111 -123 -113
-111 -123 -112
-111 -123 -111
-111 -122 -128
-111 -122 -127
-111 -122 -126
-111 -122 -125
-111 -122 -124
-111 -122 -123
-111 -122 -122
-111 -122 -121
-111 -122 -120
-111 -122 -119
-111 -122 -118
-111 -122 -117
-111 -122 -116
-111 -122 -115
-111 -122 -114
-111 -122 -113
-111 -122 -112
-111 -122 -111
-111 -121 -128
-111 -121 -127
-111 -121 -126
-111 -121 -125
-111 -121 -124
-111 -121 -123
-111 -121 -122
-111 -121 -121
-111 -121 -120
-111 -121 -119
-111 -121 -118
-111 -121 -117
-111 -121 -116
-111 -121 -115
-111 -121 -114
-111 -121 -113
-111 -121 -112
-111 -121 -111
-111 -120 -128
-111 -120 -127
-111 -120 -126
-111 -120 -125
-111 -120 -124
-111 -120 -123
-111 -120 -122
-111 -120 -121
-111 -120 -120
-111 -120 -119
-111 -120 -118
-111 -120 -117
-111 -120 -116
-111 -120 -115
-111 -120 -114
-111 -120 -113
-111 -120 -112
-111 -120 -111
-111 -119 -128
-111 -119 -127
-111 -119 -126
-111 -119 -125
-111 -119 -124
-111 -119 -123
-111 -119 -122
-111 -119 -121
-111 -119 -120
-111 -119 -119
-111 -119 -118
-111 -119 -117
-111 -119 -116
-111 -119 -115
-111 -119 -114
-111 -119 -113
-111 -119 -112
-111 -119 -111
-111 -118 -128
-111 -118 -127
-111 -118 -126
-111 -118 -125
-111 -118 -124
-111 -118 -123
-111 -118 -122
-111 -118 -121
-111 -118 -120
-111 -118 -119
-111 -118 -118
-111 -118 -117
-111 -118 -116
-111 -118 -115
-111 -118 -114
-111 -118 -113
-111 -118 -112
-111 -118 -111
-111 -117 -128
-111 -117 -127
-111 -117 -126
-111 -117 -125
-111 -117 -124
-111 -117 -123
-111 -117 -122
-111 -117 -121
-111 -117 -120
-111 -117 -119
-111 -117 -118
-111 -117 -117
-111 -117 -116
-111 -117 -115
-111 -117 -114
-111 -117 -113
-111 -117 -112
-111 -117 -111
-111 -116 -128
-111 -116 -127
-111 -116 -126
-111 -116 -125
-111 -116 -124
-111 -116 -123
-111 -116 -122
-111 -116 -121
-111 -116 -120
-111 -116 -119
-111 -116 -118
-111 -116 -117
-111 -116 -116
-111 -116 -115
-111 -116 -114
-111 -116 -113
-111 -116 -112
-111 -116 -111
-111 -115 -128
-111 -115 -127
-111 -115 -126
-111 -115 -125
-111 -115 -124
-111 -115 -123
-111 -115 -122
-111 -115 -121
-111 -115 -120
-111 -115 -119
-111 -115 -118
-111 -115 -117
-111 -115 -116
-111 -115 -115
-111 -115 -114
-111 -115 -113
-111 -115 -112
-111 -115 -111
-111 -114 -128
-111 -114 -127
-111 -114 -126
-111 -114 -125
-111 -114 -124
-111 -114 -123
-111 -114 -122
-111 -114 -121
-111 -114 -120
-111 -114 -119
-111 -114 -118
-111 -114 -117
-111 -114 -116
-111 -114 -115
-111 -114 -114
-111 -114 -113
-111 -114 -112
-111 -114 -111
-111 -113 -128
-111 -113 -127
-111 -113 -126
-111 -113 -125
-111 -113 -124
-111 -113 -123
-111 -113 -122
-111 -113 -121
-111 -113 -120
-111 -113 -119
-111 -113 -118
-111 -113 -117
-111 -113 -116
-111 -113 -115
-111 -113 -114
-111 -113 -113
-111 -113 -112
-111 -113 -111
-111 -112 -128
-111 -112 -127
-111 -112 -126
-111 -112 -125
-111 -112 -124
-111 -112 -123
-111 -112 -122
-111 -112 -121
-111 -112 -120
-111 -112 -119
-111 -112 -118
-111 -112 -117
-111 -112 -116
-111 -112 -115
-111 -112 -114
-111 -112 -113
-111 -112 -112
-111 -112 -111
-111 -111 -128
-111 -111 -127
-111 -111 -126
-111 -111 -125
-111 -111 -124
-111 -111 -123
-111 -111 -122
-111 -111 -121
-111 -111 -120
-111 -111 -119
-111 -111 -118
-111 -111 -117
-111 -111 -116
-111 -111 -115
-111 -111 -114
-111 -111 -113
-111 -111 -112
-111 -111 -111
